4.78976854e-01
3.04825195e-01
1.96210583e-01
1.97406853e-01
2.17392912e-01
2.15706967e-01
1.98219585e-01
1.76114250e-01
1.59682999e-01
1.51846922e-01
1.48343914e-01
1.44677772e-01
1.39608156e-01
1.34134712e-01
1.29537329e-01
1.26190126e-01
1.23589733e-01
1.21193528e-01
1.18761102e-01
1.16342311e-01
1.14127028e-01
1.12201085e-01
1.10495918e-01
1.08920721e-01
1.07393467e-01
1.05905047e-01
1.04501933e-01
1.03197702e-01
1.01952358e-01
1.00743220e-01
9.95466637e-02
9.83971922e-02
9.73204273e-02
9.62994984e-02
9.53030919e-02
9.43280864e-02
9.33840356e-02
9.24693539e-02
9.15833608e-02
9.07220096e-02
8.98852676e-02
8.90652558e-02
8.82634691e-02
8.74914230e-02
8.67493565e-02
8.60296428e-02
8.53069494e-02
8.45876703e-02
8.38881518e-02
8.32167999e-02
8.25665067e-02
8.19280833e-02
8.12964555e-02
8.06663690e-02
8.00442099e-02
7.94310119e-02
7.88233755e-02
7.82220409e-02
7.76324008e-02
7.70628939e-02
7.65045768e-02
7.59579950e-02
7.54176509e-02
7.48797181e-02
7.43464958e-02
7.38230323e-02
7.33048949e-02
7.27888772e-02
7.22688924e-02
7.17588604e-02
7.12644739e-02
7.07785302e-02
7.02964543e-02
6.98131470e-02
6.93353966e-02
6.88570153e-02
6.83819596e-02
6.79157045e-02
6.74644531e-02
6.70251132e-02
6.65853740e-02
6.61434439e-02
6.57027720e-02
6.52655906e-02
6.48113927e-02
6.43562232e-02
6.39207659e-02
6.35102873e-02
6.31150889e-02
6.27131435e-02
6.23056218e-02
6.19027991e-02
6.15061415e-02
6.11185913e-02
6.07272581e-02
6.03285279e-02
5.99218886e-02
5.95236584e-02
5.91432381e-02
5.87759331e-02
5.84142963e-02
5.80533181e-02
5.76972720e-02
5.73486161e-02
5.70091506e-02
5.66792956e-02
5.63565102e-02
5.60363610e-02
5.56976839e-02
5.53514809e-02
5.50114918e-02
5.46829180e-02
5.43631855e-02
5.40486909e-02
5.37411040e-02
5.34392961e-02
5.31405527e-02
5.28231214e-02
5.25008158e-02
5.21774702e-02
5.18497854e-02
5.15364462e-02
5.12456853e-02
5.09680244e-02
5.06922217e-02
5.04154973e-02
5.01360855e-02
4.98566950e-02
4.95825233e-02
4.93074913e-02
4.90231761e-02
4.87388343e-02
4.84552403e-02
4.81741730e-02
4.79050697e-02
4.76458881e-02
4.73925264e-02
4.71371457e-02
4.68832210e-02
4.66332672e-02
4.63891025e-02
4.61503918e-02
4.59149515e-02
4.56779090e-02
4.54378461e-02
4.51961829e-02
4.49589270e-02
4.47299089e-02
4.45072431e-02
4.42803370e-02
4.40426207e-02
4.38046526e-02
4.35768845e-02
4.33600732e-02
4.31475013e-02
4.29340401e-02
4.27195380e-02
4.25021351e-02
4.22858767e-02
4.20772901e-02
4.18763453e-02
4.16722072e-02
4.14535223e-02
4.12290058e-02
4.10124962e-02
4.08081486e-02
4.06122268e-02
4.04198399e-02
4.02211413e-02
4.00212261e-02
3.98265260e-02
3.96397981e-02
3.94577655e-02
3.92747715e-02
3.90896380e-02
3.89062797e-02
3.87212964e-02
3.85361962e-02
3.83548072e-02
3.81784415e-02
3.79941269e-02
3.78033717e-02
3.76157108e-02
3.74393842e-02
3.72739558e-02
3.71115957e-02
3.69484449e-02
3.67846426e-02
3.66212864e-02
3.64575964e-02
3.62924097e-02
3.61265686e-02
3.59626826e-02
3.57977301e-02
3.56349838e-02
3.54738792e-02
3.53173187e-02
3.51617105e-02
3.50082570e-02
3.48574979e-02
3.47012841e-02
3.45407829e-02
3.43776265e-02
3.42182479e-02
3.40657117e-02
3.39194244e-02
3.37731002e-02
3.36222322e-02
3.34634269e-02
3.33079293e-02
3.31612017e-02
3.30221798e-02
3.28848460e-02
3.27433156e-02
3.25935197e-02
3.24441271e-02
3.23014918e-02
3.21649973e-02
3.20293620e-02
3.18944172e-02
3.17605236e-02
3.16289270e-02
3.15002656e-02
3.13715264e-02
3.12391567e-02
3.10996434e-02
3.09588440e-02
3.08217257e-02
3.06913695e-02
3.05665553e-02
3.04371072e-02
3.03035589e-02
3.01742746e-02
3.00514734e-02
2.99292279e-02
2.98062611e-02
2.96808899e-02
2.95559282e-02
2.94332916e-02
2.93083412e-02
2.91830502e-02
2.90621264e-02
2.89462887e-02
2.88337392e-02
2.87202439e-02
2.85946534e-02
2.84689608e-02
2.83500273e-02
2.82357420e-02
2.81156922e-02
2.79961732e-02
2.78811251e-02
2.77702609e-02
2.76593056e-02
2.75490242e-02
2.74373973e-02
2.73253238e-02
2.72161989e-02
2.71106993e-02
2.70051114e-02
2.68905138e-02
2.67746583e-02
2.66645426e-02
2.65572072e-02
2.64425720e-02
2.63278492e-02
2.62184607e-02
2.61156183e-02
2.60176477e-02
2.59213062e-02
2.58244580e-02
2.57257543e-02
2.56250279e-02
2.55250938e-02
2.54277359e-02
2.53312515e-02
2.52351199e-02
2.51403168e-02
2.50469779e-02
2.49543864e-02
2.48614555e-02
2.47686596e-02
2.46765290e-02
2.45856772e-02
2.44960862e-02
2.44072205e-02
2.43093846e-02
2.42064743e-02
2.41048255e-02
2.40029296e-02
2.39047458e-02
2.38129702e-02
2.37099440e-02
2.36043920e-02
2.35064759e-02
2.34149043e-02
2.33273781e-02
2.32385538e-02
2.31429262e-02
2.30402682e-02
2.29404414e-02
2.28490082e-02
2.27650952e-02
2.26822275e-02
2.25986952e-02
2.25153530e-02
2.24331055e-02
2.23520618e-02
2.22711802e-02
2.21883047e-02
2.21020488e-02
2.20173021e-02
2.19366811e-02
2.18594766e-02
2.17833402e-02
2.17068705e-02
2.16299119e-02
2.15516360e-02
2.14732437e-02
2.13963140e-02
2.13204739e-02
2.12453052e-02
2.11695580e-02
2.10907578e-02
2.10121851e-02
2.09368167e-02
2.08626260e-02
2.07886603e-02
2.07153836e-02
2.06430087e-02
2.05716507e-02
2.05008257e-02
2.04303144e-02
2.03600299e-02
2.02901473e-02
2.02195556e-02
2.01488967e-02
2.00747551e-02
1.99967214e-02
1.99208557e-02
1.98497608e-02
1.97830070e-02
1.97178174e-02
1.96508059e-02
1.95811821e-02
1.95104988e-02
1.94396420e-02
1.93668224e-02
1.92913255e-02
1.92184376e-02
1.91505796e-02
1.90846466e-02
1.90185480e-02
1.89522969e-02
1.88804806e-02
1.87917213e-02
1.86906705e-02
1.85901700e-02
1.84969032e-02
1.84194574e-02
1.83417476e-02
1.82606143e-02
1.81835487e-02
1.81147859e-02
1.80508314e-02
1.79884702e-02
1.79251426e-02
1.78605260e-02
1.77912899e-02
1.77102905e-02
1.76191347e-02
1.75335692e-02
1.74629300e-02
1.74029820e-02
1.73455820e-02
1.72854252e-02
1.72225932e-02
1.71600742e-02
1.71001625e-02
1.70427934e-02
1.69855430e-02
1.69235767e-02
1.68589335e-02
1.67962167e-02
1.67375481e-02
1.66806815e-02
1.66231983e-02
1.65654411e-02
1.65083986e-02
1.64526340e-02
1.63974089e-02
1.63426901e-02
1.62884236e-02
1.62344835e-02
1.61807432e-02
1.61271304e-02
1.60736391e-02
1.60203121e-02
1.59672170e-02
1.59141168e-02
1.58589036e-02
1.58009863e-02
1.57414818e-02
1.56815404e-02
1.56229661e-02
1.55679409e-02
1.55158439e-02
1.54649748e-02
1.54141558e-02
1.53624870e-02
1.53075899e-02
1.52527322e-02
1.51737118e-02
1.50924628e-02
1.50268331e-02
1.49782462e-02
1.49366996e-02
1.48918930e-02
1.48398085e-02
1.47815658e-02
1.47215982e-02
1.46666572e-02
1.46180185e-02
1.45727117e-02
1.45269814e-02
1.44779263e-02
1.44262169e-02
1.43725641e-02
1.43189025e-02
1.42673102e-02
1.42187815e-02
1.41701147e-02
1.41157159e-02
1.40597322e-02
1.40067143e-02
1.39580341e-02
1.39126239e-02
1.38679969e-02
1.38225162e-02
1.37761466e-02
1.37297538e-02
1.36836602e-02
1.36369356e-02
1.35895934e-02
1.35425218e-02
1.34961811e-02
1.34470092e-02
1.33911670e-02
1.33363330e-02
1.32878152e-02
1.32452563e-02
1.32046632e-02
1.31625895e-02
1.31173761e-02
1.30702368e-02
1.30243903e-02
1.29811981e-02
1.29399932e-02
1.28935828e-02
1.28423086e-02
1.27926135e-02
1.27479598e-02
1.27018999e-02
1.26559939e-02
1.26093171e-02
1.25603129e-02
1.25120714e-02
1.24672234e-02
1.24132532e-02
1.23564678e-02
1.23065174e-02
1.22642363e-02
1.22248198e-02
1.21852328e-02
1.21443077e-02
1.21007798e-02
1.20543295e-02
1.20093978e-02
1.19678353e-02
1.19274022e-02
1.18859369e-02
1.18451799e-02
1.18061553e-02
1.17685637e-02
1.17302882e-02
1.16858795e-02
1.16386485e-02
1.15947522e-02
1.15557865e-02
1.15196623e-02
1.14836766e-02
1.14460595e-02
1.14057782e-02
1.13634618e-02
1.13178799e-02
1.12738737e-02
1.12336123e-02
1.11956246e-02
1.11581302e-02
1.11197345e-02
1.10793122e-02
1.10365376e-02
1.09950500e-02
1.09566724e-02
1.09206598e-02
1.08854536e-02
1.08496990e-02
1.08128893e-02
1.07714489e-02
1.07288591e-02
1.06874830e-02
1.06481087e-02
1.06059469e-02
1.05635023e-02
1.05191093e-02
1.04753670e-02
1.04275075e-02
1.03828949e-02
1.03448970e-02
1.03118001e-02
1.02802845e-02
1.02477728e-02
1.02125300e-02
1.01748770e-02
1.01379284e-02
1.01032130e-02
1.00705598e-02
1.00389072e-02
1.00073617e-02
9.96910471e-03
9.92617260e-03
9.87354407e-03
9.82325744e-03
9.78385144e-03
9.75146597e-03
9.72157211e-03
9.69051543e-03
9.65716082e-03
9.62163374e-03
9.58698513e-03
9.55163442e-03
9.51754689e-03
9.48404727e-03
9.44964314e-03
9.41554899e-03
9.38281866e-03
9.35138413e-03
9.31836365e-03
9.28274562e-03
9.24926474e-03
9.21965113e-03
9.19248419e-03
9.16547614e-03
9.13699468e-03
9.10438689e-03
9.07097099e-03
9.03943522e-03
9.01052155e-03
8.98037521e-03
8.94931950e-03
8.91970587e-03
8.89204160e-03
8.86473331e-03
8.83615473e-03
8.80749041e-03
8.77973325e-03
8.75255103e-03
8.72577958e-03
8.69918539e-03
8.67306969e-03
8.64673455e-03
8.62045087e-03
8.59376014e-03
8.56636065e-03
8.53662142e-03
8.50495730e-03
8.47220589e-03
8.44036065e-03
8.41060049e-03
8.38348769e-03
8.35808185e-03
8.33260207e-03
8.30694450e-03
8.27915466e-03
8.25052190e-03
8.22323402e-03
8.19761587e-03
8.17288270e-03
8.14834894e-03
8.12317337e-03
8.09482086e-03
8.06699396e-03
8.04178364e-03
8.01876495e-03
7.99357188e-03
7.96673193e-03
7.94142829e-03
7.91863212e-03
7.89727550e-03
7.87589883e-03
7.85380859e-03
7.83102187e-03
7.80756312e-03
7.78406549e-03
7.76113491e-03
7.73864832e-03
7.71642881e-03
7.69442483e-03
7.67155352e-03
7.64875924e-03
7.62675964e-03
7.60570158e-03
7.58532041e-03
7.56527689e-03
7.54536583e-03
7.52552081e-03
7.50427550e-03
7.47803943e-03
7.45199268e-03
7.42936681e-03
7.40999248e-03
7.39173768e-03
7.37270139e-03
7.35235847e-03
7.33131409e-03
7.31041844e-03
7.28923608e-03
7.26830716e-03
7.24805890e-03
7.22851385e-03
7.20945210e-03
7.19063024e-03
7.17190512e-03
7.15324458e-03
7.13264474e-03
7.11088085e-03
7.09010127e-03
7.07109834e-03
7.05328662e-03
7.03453274e-03
7.01100974e-03
6.98597653e-03
6.96299209e-03
6.94280858e-03
6.92252983e-03
6.89961537e-03
6.87406105e-03
6.84814895e-03
6.82552865e-03
6.80666165e-03
6.78970158e-03
6.77232536e-03
6.75133368e-03
6.72944742e-03
6.70912525e-03
6.69087778e-03
6.67270391e-03
6.65204115e-03
6.62927163e-03
6.60821083e-03
6.58979471e-03
6.57127012e-03
6.55077308e-03
6.52933937e-03
6.50914131e-03
6.49019701e-03
6.46714759e-03
6.44391788e-03
6.42352109e-03
6.40638361e-03
6.39097722e-03
6.37517765e-03
6.35819500e-03
6.33947572e-03
6.31954353e-03
6.30088761e-03
6.28364121e-03
6.26414739e-03
6.24419629e-03
6.22612036e-03
6.20983230e-03
6.19416370e-03
6.17778201e-03
6.15971579e-03
6.13998668e-03
6.11927603e-03
6.09944586e-03
6.08138461e-03
6.06466926e-03
6.04834565e-03
6.03183880e-03
6.01527617e-03
5.99908140e-03
5.98170353e-03
5.96385756e-03
5.94527157e-03
5.92503537e-03
5.90473805e-03
5.88223802e-03
5.86200215e-03
5.84565392e-03
5.83182263e-03
5.81808880e-03
5.80314532e-03
5.78709915e-03
5.76974345e-03
5.74365341e-03
5.71464619e-03
5.69123774e-03
5.67525764e-03
5.66316596e-03
5.64962695e-03
5.63239460e-03
5.61354415e-03
5.59349595e-03
5.57283209e-03
5.55507788e-03
5.54073134e-03
5.52638583e-03
5.51125262e-03
5.49602499e-03
5.48142309e-03
5.46764907e-03
5.45443492e-03
5.44138085e-03
5.42823176e-03
5.41494879e-03
5.40161943e-03
5.38833927e-03
5.37514941e-03
5.36204097e-03
5.34773216e-03
5.33274241e-03
5.31703536e-03
5.30157087e-03
5.28739924e-03
5.27453842e-03
5.26240207e-03
5.25039197e-03
5.23821531e-03
5.22589027e-03
5.21357787e-03
5.20141389e-03
5.18942989e-03
5.17756624e-03
5.16573155e-03
5.15237965e-03
5.13860859e-03
5.12540408e-03
5.11306805e-03
5.10133442e-03
5.08978258e-03
5.07738973e-03
5.06349833e-03
5.04985667e-03
5.03737387e-03
5.02470310e-03
5.01063492e-03
4.99659012e-03
4.98208652e-03
4.96055817e-03
4.93945575e-03
4.92353031e-03
4.91202484e-03
4.90102361e-03
4.88688527e-03
4.87127832e-03
4.85653658e-03
4.84342406e-03
4.83133618e-03
4.82009572e-03
4.80921045e-03
4.79821865e-03
4.78694877e-03
4.77553032e-03
4.76421438e-03
4.75266682e-03
4.73831826e-03
4.72081527e-03
4.70433796e-03
4.69106355e-03
4.68061956e-03
4.67129748e-03
4.66155948e-03
4.64873192e-03
4.63448045e-03
4.61601384e-03
4.59595907e-03
4.57944469e-03
4.56618473e-03
4.55270039e-03
4.53901216e-03
4.52525307e-03
4.51229194e-03
4.50040051e-03
4.48920319e-03
4.47815860e-03
4.46715576e-03
4.45626649e-03
4.44560546e-03
4.43075827e-03
4.41519345e-03
4.40222582e-03
4.39228592e-03
4.38243803e-03
4.37148361e-03
4.35914018e-03
4.34672645e-03
4.33563695e-03
4.32602544e-03
4.31712184e-03
4.30806882e-03
4.29740710e-03
4.28154165e-03
4.26515518e-03
4.25162918e-03
4.24134346e-03
4.23239029e-03
4.22323766e-03
4.21323999e-03
4.20298066e-03
4.19201906e-03
4.18016830e-03
4.16847950e-03
4.15802232e-03
4.14876009e-03
4.14007481e-03
4.13136412e-03
4.12237498e-03
4.11317343e-03
4.10216303e-03
4.08602256e-03
4.07051692e-03
4.05904060e-03
4.05112748e-03
4.04425152e-03
4.03636029e-03
4.02706048e-03
4.01708154e-03
4.00735548e-03
3.99834503e-03
3.98982750e-03
3.98144408e-03
3.97193426e-03
3.96198631e-03
3.95257597e-03
3.94310500e-03
3.93398487e-03
3.92527092e-03
3.91679101e-03
3.90839726e-03
3.90007726e-03
3.89188654e-03
3.88383533e-03
3.87585398e-03
3.86670302e-03
3.85671787e-03
3.84718862e-03
3.83853703e-03
3.83046067e-03
3.82253629e-03
3.81344920e-03
3.80325081e-03
3.79368393e-03
3.78491603e-03
3.77688842e-03
3.76906889e-03
3.76101722e-03
3.75267924e-03
3.74429429e-03
3.73603409e-03
3.72603368e-03
3.71618074e-03
3.70765964e-03
3.70036252e-03
3.69347803e-03
3.68633337e-03
3.67877383e-03
3.67101324e-03
3.66330129e-03
3.65573045e-03
3.64825615e-03
3.64068529e-03
3.63309748e-03
3.62566400e-03
3.61670232e-03
3.60713493e-03
3.59827074e-03
3.59066058e-03
3.58384087e-03
3.57696074e-03
3.56954167e-03
3.56184181e-03
3.55426122e-03
3.54700689e-03
3.53990545e-03
3.53282068e-03
3.52573167e-03
3.51713423e-03
3.50738694e-03
3.49835906e-03
3.49077128e-03
3.48415527e-03
3.47766032e-03
3.47079886e-03
3.46363074e-03
3.45648562e-03
3.44960719e-03
3.44017273e-03
3.42840805e-03
3.41797220e-03
3.40732006e-03
3.39287039e-03
3.37961216e-03
3.37015606e-03
3.36374526e-03
3.35805660e-03
3.35062694e-03
3.34076899e-03
3.33104044e-03
3.32302873e-03
3.31656609e-03
3.31054932e-03
3.30410373e-03
3.29710387e-03
3.28994581e-03
3.28304572e-03
3.27653322e-03
3.27027245e-03
3.26405733e-03
3.25777183e-03
3.25135659e-03
3.24373241e-03
3.23505187e-03
3.22691368e-03
3.21989049e-03
3.21361554e-03
3.20749817e-03
3.19987978e-03
3.18394394e-03
3.16725478e-03
3.15471599e-03
3.14743492e-03
3.14287425e-03
3.13570375e-03
3.12389529e-03
3.11181423e-03
3.10239368e-03
3.09568289e-03
3.08981583e-03
3.08328369e-03
3.07634742e-03
3.06966525e-03
3.06350366e-03
3.05760420e-03
3.05156097e-03
3.04521385e-03
3.03872975e-03
3.03240294e-03
3.02641097e-03
3.02071923e-03
3.01515667e-03
3.00955718e-03
3.00385223e-03
2.99807315e-03
2.99073217e-03
2.98129377e-03
2.97224825e-03
2.96497934e-03
2.95936928e-03
2.95067696e-03
2.93976299e-03
2.93026904e-03
2.92342349e-03
2.91786816e-03
2.91231526e-03
2.90620186e-03
2.89977262e-03
2.89352890e-03
2.88772632e-03
2.88227299e-03
2.87692569e-03
2.87151128e-03
2.86600261e-03
2.86046273e-03
2.85407778e-03
2.84612088e-03
2.83864015e-03
2.83265355e-03
2.82781382e-03
2.82278925e-03
2.81715852e-03
2.81123032e-03
2.80545466e-03
2.80005138e-03
2.79494503e-03
2.78992748e-03
2.78484459e-03
2.77967102e-03
2.77446966e-03
2.76931157e-03
2.76405618e-03
2.75792168e-03
2.75165967e-03
2.74594885e-03
2.74091919e-03
2.73626076e-03
2.73157548e-03
2.72665503e-03
2.72153596e-03
2.71638196e-03
2.71133330e-03
2.70642913e-03
2.70162156e-03
2.69683669e-03
2.69202721e-03
2.68718875e-03
2.68234496e-03
2.67703492e-03
2.67101084e-03
2.66516423e-03
2.65892632e-03
2.65088568e-03
2.64338526e-03
2.63757902e-03
2.63309061e-03
2.62891552e-03
2.62320020e-03
2.61573904e-03
2.60847964e-03
2.60213992e-03
2.59696296e-03
2.59254792e-03
2.58828184e-03
2.58377783e-03
2.57898629e-03
2.57405868e-03
2.56916427e-03
2.56439249e-03
2.55975223e-03
2.55521286e-03
2.55073747e-03
2.54629497e-03
2.54186177e-03
2.53742380e-03
2.53297952e-03
2.52853897e-03
2.52411708e-03
2.51972489e-03
2.51535568e-03
2.51097980e-03
2.50661387e-03
2.50152352e-03
2.48941019e-03
2.47697797e-03
2.46886321e-03
2.46510213e-03
2.46286069e-03
2.45954341e-03
2.45449338e-03
2.44864161e-03
2.44318217e-03
2.43859939e-03
2.43459814e-03
2.43062622e-03
2.42634562e-03
2.42183837e-03
2.41735937e-03
2.41231602e-03
2.40692845e-03
2.40186885e-03
2.39742328e-03
2.39334602e-03
2.38924784e-03
2.38493693e-03
2.38048230e-03
2.37554641e-03
2.37024408e-03
2.36451382e-03
2.35887022e-03
2.35402540e-03
2.34999867e-03
2.34634212e-03
2.34258991e-03
2.33855271e-03
2.33432356e-03
2.33010184e-03
2.32601920e-03
2.32178362e-03
2.30965493e-03
2.29678059e-03
2.28839752e-03
2.28480840e-03
2.28304065e-03
2.28020707e-03
2.27546778e-03
2.26976234e-03
2.26440597e-03
2.25921671e-03
2.25407708e-03
2.24943199e-03
2.24530174e-03
2.24144594e-03
2.23763510e-03
2.23377988e-03
2.22989474e-03
2.22601140e-03
2.22185566e-03
2.21654581e-03
2.20641930e-03
2.19634841e-03
2.18954782e-03
2.18586892e-03
2.18328847e-03
2.18007311e-03
2.17581619e-03
2.17109004e-03
2.16656256e-03
2.16247185e-03
2.15866861e-03
2.15492721e-03
2.15106425e-03
2.14707244e-03
2.14318930e-03
2.13950302e-03
2.13594035e-03
2.13237505e-03
2.12874582e-03
2.12505088e-03
2.12083013e-03
2.11660017e-03
2.11261589e-03
2.10885599e-03
2.10528039e-03
2.10176834e-03
2.09795132e-03
2.09337332e-03
2.08885058e-03
2.08482512e-03
2.08081383e-03
2.07688553e-03
2.07311884e-03
2.06953618e-03
2.06609330e-03
2.06271292e-03
2.05932996e-03
2.05591625e-03
2.05247582e-03
2.04902650e-03
2.04557811e-03
2.04213947e-03
2.03871880e-03
2.03508042e-03
2.03130836e-03
2.02768593e-03
2.02430771e-03
2.02108467e-03
2.01787459e-03
2.01459648e-03
2.01125651e-03
2.00790493e-03
2.00458251e-03
2.00128475e-03
1.99795334e-03
1.99128842e-03
1.98400269e-03
1.97854844e-03
1.97525760e-03
1.97294867e-03
1.97034339e-03
1.96695817e-03
1.96307876e-03
1.95923237e-03
1.95573009e-03
1.95255259e-03
1.94693064e-03
1.93700975e-03
1.92804148e-03
1.92258423e-03
1.91860446e-03
1.91459112e-03
1.91028801e-03
1.90597226e-03
1.90200072e-03
1.89739268e-03
1.89216105e-03
1.88747471e-03
1.88373005e-03
1.88058167e-03
1.87749248e-03
1.87418623e-03
1.87072001e-03
1.86728948e-03
1.86402101e-03
1.86090354e-03
1.85784777e-03
1.85477564e-03
1.85166497e-03
1.84853854e-03
1.84542962e-03
1.84235701e-03
1.83932068e-03
1.83631048e-03
1.83184755e-03
1.82522323e-03
1.81909628e-03
1.81483327e-03
1.81211898e-03
1.80987417e-03
1.80727979e-03
1.80415863e-03
1.80065780e-03
1.79715165e-03
1.79384948e-03
1.79076048e-03
1.78780919e-03
1.78492978e-03
1.78208419e-03
1.77924250e-03
1.77637546e-03
1.77346870e-03
1.77053601e-03
1.76761234e-03
1.76473059e-03
1.76190108e-03
1.75910886e-03
1.75632730e-03
1.75353563e-03
1.75072864e-03
1.74791623e-03
1.74511282e-03
1.74232803e-03
1.73956305e-03
1.73681280e-03
1.73407051e-03
1.73133150e-03
1.72859468e-03
1.72586173e-03
1.72313536e-03
1.72041765e-03
1.71770932e-03
1.71500974e-03
1.71231776e-03
1.70963233e-03
1.70695291e-03
1.70427955e-03
1.70161269e-03
1.69895274e-03
1.69629989e-03
1.69365216e-03
1.69099115e-03
1.68807595e-03
1.68511103e-03
1.68229782e-03
1.67966276e-03
1.67707860e-03
1.67442118e-03
1.67171160e-03
1.66902510e-03
1.66640457e-03
1.66383644e-03
1.66128204e-03
1.65871543e-03
1.65613543e-03
1.65355388e-03
1.65098030e-03
1.64841665e-03
1.64586122e-03
1.64331376e-03
1.64077652e-03
1.63825168e-03
1.63573904e-03
1.63323584e-03
1.63073339e-03
1.62822224e-03
1.62571458e-03
1.62321791e-03
1.62045792e-03
1.61759575e-03
1.61488625e-03
1.61239092e-03
1.61001004e-03
1.60761618e-03
1.60515312e-03
1.60264446e-03
1.60014295e-03
1.59768074e-03
1.59525515e-03
1.59284507e-03
1.59043334e-03
1.58801680e-03
1.58560210e-03
1.58319635e-03
1.58080156e-03
1.57841519e-03
1.57603389e-03
1.57365622e-03
1.57128288e-03
1.56891523e-03
1.56655390e-03
1.56419849e-03
1.56184815e-03
1.55950228e-03
1.55716082e-03
1.55482412e-03
1.55249252e-03
1.55016625e-03
1.54784562e-03
1.54553051e-03
1.54322059e-03
1.54091573e-03
1.53845922e-03
1.53585005e-03
1.53332005e-03
1.53096229e-03
1.52872427e-03
1.52650768e-03
1.52425428e-03
1.52196413e-03
1.51966581e-03
1.51738284e-03
1.51512113e-03
1.51287476e-03
1.51063614e-03
1.50840117e-03
1.50616904e-03
1.50394033e-03
1.50171585e-03
1.49949648e-03
1.49728298e-03
1.49507565e-03
1.49267570e-03
1.49007418e-03
1.48757167e-03
1.48528869e-03
1.48315748e-03
1.48105145e-03
1.47889750e-03
1.47669832e-03
1.47449108e-03
1.47230260e-03
1.46888408e-03
1.46096910e-03
1.45330783e-03
1.44882141e-03
1.44720539e-03
1.44639695e-03
1.44472752e-03
1.44192091e-03
1.43869391e-03
1.43581623e-03
1.43352015e-03
1.43134437e-03
1.42882186e-03
1.42572120e-03
1.42200143e-03
1.41871044e-03
1.41625483e-03
1.41435514e-03
1.41250224e-03
1.41039436e-03
1.39997860e-03
1.38823583e-03
1.38103678e-03
1.37902775e-03
1.37916426e-03
1.37832466e-03
1.37550824e-03
1.37162792e-03
1.36805047e-03
1.36542354e-03
1.36350048e-03
1.36167907e-03
1.35840860e-03
1.35455707e-03
1.35125465e-03
1.34885553e-03
1.34700654e-03
1.34518143e-03
1.34310497e-03
1.34081823e-03
1.33849928e-03
1.33627443e-03
1.33415580e-03
1.33208987e-03
1.33002928e-03
1.32796419e-03
1.32590894e-03
1.32387544e-03
1.32186056e-03
1.31985193e-03
1.31783993e-03
1.31582393e-03
1.31380978e-03
1.31179883e-03
1.30979205e-03
1.30779442e-03
1.30580677e-03
1.30382780e-03
1.30185667e-03
1.29989372e-03
1.29793942e-03
1.29599318e-03
1.29405322e-03
1.29211752e-03
1.29018478e-03
1.28825485e-03
1.28632840e-03
1.28440631e-03
1.28248915e-03
1.28057707e-03
1.27866984e-03
1.27676708e-03
1.27486844e-03
1.27297370e-03
1.27108283e-03
1.26919596e-03
1.26457757e-03
1.25386276e-03
1.24412836e-03
1.23934432e-03
1.23867188e-03
1.23889317e-03
1.23761213e-03
1.23457822e-03
1.23096576e-03
1.22794969e-03
1.22585704e-03
1.22426713e-03
1.22261007e-03
1.22063170e-03
1.21844432e-03
1.21629353e-03
1.21432195e-03
1.21250074e-03
1.21071245e-03
1.20886663e-03
1.20695299e-03
1.20501855e-03
1.20311415e-03
1.20125892e-03
1.19943990e-03
1.19763263e-03
1.19582052e-03
1.19400074e-03
1.19217881e-03
1.19036079e-03
1.18854936e-03
1.18674451e-03
1.18494587e-03
1.18315384e-03
1.18136905e-03
1.17958941e-03
1.17781466e-03
1.17604405e-03
1.17427654e-03
1.17251175e-03
1.17075021e-03
1.16899300e-03
1.16724096e-03
1.16549426e-03
1.16375239e-03
1.16201456e-03
1.16028015e-03
1.15854894e-03
1.15676835e-03
1.15479507e-03
1.15283975e-03
1.15102406e-03
1.14933083e-03
1.14764440e-03
1.14591043e-03
1.14415539e-03
1.14241595e-03
1.14070631e-03
1.13901714e-03
1.13733275e-03
1.13564530e-03
1.13395702e-03
1.13227389e-03
1.13059939e-03
1.12893271e-03
1.12725908e-03
1.12547727e-03
1.12369113e-03
1.12197161e-03
1.12032104e-03
1.11870041e-03
1.11707334e-03
1.11542866e-03
1.11377557e-03
1.11212728e-03
1.11048998e-03
1.10886222e-03
1.10724003e-03
1.10562112e-03
1.10400549e-03
1.10239388e-03
1.10078638e-03
1.09918238e-03
1.09758130e-03
1.09598309e-03
1.09438814e-03
1.09279683e-03
1.08660097e-03
1.07733544e-03
1.07042925e-03
1.06777601e-03
1.06770425e-03
1.06754699e-03
1.06589768e-03
1.06299155e-03
1.05952105e-03
1.05669075e-03
1.05482495e-03
1.05349927e-03
1.05214819e-03
1.05050930e-03
1.04865933e-03
1.04679933e-03
1.04505448e-03
1.04342320e-03
1.04184085e-03
1.04025632e-03
1.03865919e-03
1.03706224e-03
1.03547569e-03
1.03389823e-03
1.03232392e-03
1.03075098e-03
1.02918331e-03
1.02762567e-03
1.02607912e-03
1.02207046e-03
1.01463935e-03
1.00810498e-03
1.00463579e-03
1.00366476e-03
1.00342772e-03
1.00261020e-03
1.00091641e-03
9.98714756e-04
9.96469024e-04
9.94434772e-04
9.92658628e-04
9.91089333e-04
9.89650328e-04
9.88257582e-04
9.86830763e-04
9.85084158e-04
9.82511228e-04
9.79596102e-04
9.77210779e-04
9.75570567e-04
9.74348437e-04
9.73114476e-04
9.71658088e-04
9.70022526e-04
9.68356329e-04
9.66765342e-04
9.65264694e-04
9.63815054e-04
9.62376611e-04
9.60898794e-04
9.59415248e-04
9.57956704e-04
9.56525969e-04
9.55108323e-04
9.53690824e-04
9.52271158e-04
9.50853923e-04
9.49443192e-04
9.48039109e-04
9.46639470e-04
9.45242737e-04
9.43849270e-04
9.42460373e-04
9.41076762e-04
9.39697919e-04
9.38322593e-04
9.36949711e-04
9.35578935e-04
9.34210610e-04
9.32845351e-04
9.31483632e-04
9.30125596e-04
9.26912569e-04
9.22788125e-04
9.19544975e-04
9.17746150e-04
9.16859776e-04
9.16073309e-04
9.14851182e-04
9.13247150e-04
9.11518947e-04
9.09863272e-04
9.08340052e-04
9.06927698e-04
9.05589766e-04
9.04263067e-04
8.93108759e-04
8.80774858e-04
8.73809950e-04
8.72711763e-04
8.73875256e-04
8.73819602e-04
8.71564525e-04
8.68221555e-04
8.65290863e-04
8.63401630e-04
8.62213894e-04
8.61074862e-04
8.59628400e-04
8.57945229e-04
8.56279929e-04
8.54792195e-04
8.53456522e-04
8.51966634e-04
8.50353526e-04
8.48782580e-04
8.47341932e-04
8.46008952e-04
8.44708038e-04
8.43382640e-04
8.42025476e-04
8.40662783e-04
8.39322019e-04
8.38011758e-04
8.36722483e-04
8.35439234e-04
8.34152860e-04
8.32863018e-04
8.31574350e-04
8.30291128e-04
8.29014423e-04
8.27742573e-04
8.26473260e-04
8.25205255e-04
8.23938865e-04
8.22675326e-04
8.21415909e-04
8.20161348e-04
8.18911749e-04
8.17666804e-04
8.16426044e-04
8.15188977e-04
8.13955109e-04
8.12723946e-04
8.11495031e-04
8.10268027e-04
8.09042807e-04
8.07819490e-04
8.06598394e-04
8.04651112e-04
7.93614817e-04
7.81964680e-04
7.75849184e-04
7.75459687e-04
7.76862843e-04
7.76703790e-04
7.74233824e-04
7.70734467e-04
7.67804799e-04
7.66097009e-04
7.65211564e-04
7.64383666e-04
7.63158778e-04
7.61579535e-04
7.59948121e-04
7.58501242e-04
7.57262423e-04
7.56107021e-04
7.54909322e-04
7.53633226e-04
7.52322986e-04
7.51039371e-04
7.49808234e-04
7.48613883e-04
7.47425049e-04
7.46222453e-04
7.45007594e-04
7.43793489e-04
7.42590745e-04
7.41400604e-04
7.40217304e-04
7.39034606e-04
7.37850315e-04
7.36666356e-04
7.35485959e-04
7.34310976e-04
7.33141100e-04
7.31974815e-04
7.30810773e-04
7.29648524e-04
7.28488377e-04
7.27330839e-04
7.26176179e-04
7.25024349e-04
7.23875157e-04
7.22728462e-04
7.21584237e-04
7.20442520e-04
7.19303337e-04
7.18166662e-04
7.17032437e-04
7.15900608e-04
7.14771145e-04
7.13644041e-04
7.12519291e-04
7.11396888e-04
7.10276818e-04
7.09159067e-04
7.08043627e-04
7.06930495e-04
7.05819664e-04
7.04711123e-04
7.03604856e-04
7.02500841e-04
7.01399060e-04
7.00299498e-04
6.99202142e-04
6.98106982e-04
6.97014008e-04
6.95923211e-04
6.94834580e-04
6.93748106e-04
6.92663779e-04
6.91581590e-04
6.90299546e-04
6.88450900e-04
6.86640968e-04
6.85226157e-04
6.84173088e-04
6.83248130e-04
6.82260218e-04
6.81163250e-04
6.80011771e-04
6.78870585e-04
6.77763507e-04
6.76678409e-04
6.75596830e-04
6.74513593e-04
6.73435839e-04
6.72371526e-04
6.71321111e-04
6.70277898e-04
6.69137791e-04
6.67984004e-04
6.66879492e-04
6.65831380e-04
6.64810127e-04
6.63757167e-04
6.62592128e-04
6.61424242e-04
6.60324446e-04
6.59291867e-04
6.58285650e-04
6.57270541e-04
6.56237904e-04
6.55198361e-04
6.54097005e-04
6.52952627e-04
6.51842944e-04
6.50799665e-04
6.49805975e-04
6.48825469e-04
6.47831496e-04
6.46818440e-04
6.45795728e-04
6.44775784e-04
6.43765819e-04
6.42766425e-04
6.41774364e-04
6.40785819e-04
6.39798141e-04
6.38810160e-04
6.37821909e-04
6.36834257e-04
6.35848489e-04
6.34865758e-04
6.33886575e-04
6.32910619e-04
6.31936991e-04
6.30964767e-04
6.29993480e-04
6.29023260e-04
6.28054626e-04
6.27088093e-04
6.26123890e-04
6.25161897e-04
6.24201800e-04
6.23243310e-04
6.22286308e-04
6.21330856e-04
6.20377113e-04
6.19425216e-04
6.18475211e-04
6.17527048e-04
6.16580629e-04
6.15635868e-04
6.14692725e-04
6.13751214e-04
6.12811376e-04
6.08743217e-04
6.01759107e-04
5.96269268e-04
5.94055258e-04
5.94059152e-04
5.94319218e-04
5.93645756e-04
5.89367693e-04
5.84034261e-04
5.80253257e-04
5.78638300e-04
5.78281951e-04
5.78034099e-04
5.77311495e-04
5.76125434e-04
5.74730857e-04
5.73342523e-04
5.72063292e-04
5.70928955e-04
5.69944473e-04
5.69080337e-04
5.68268542e-04
5.67429285e-04
5.66514219e-04
5.65530256e-04
5.64525940e-04
5.63554220e-04
5.62640499e-04
5.61775000e-04
5.60927758e-04
5.60031958e-04
5.58936470e-04
5.57828127e-04
5.56830697e-04
5.55946694e-04
5.55110298e-04
5.54264114e-04
5.53393687e-04
5.52514336e-04
5.51642551e-04
5.50780998e-04
5.49840744e-04
5.46483770e-04
5.42958824e-04
5.40845892e-04
5.39980475e-04
5.38000073e-04
5.35497775e-04
5.33318264e-04
5.31897072e-04
5.31111844e-04
5.30550254e-04
5.29855187e-04
5.28899242e-04
5.27758090e-04
5.26586881e-04
5.25509688e-04
5.24571769e-04
5.23747997e-04
5.22977976e-04
5.22202190e-04
5.21385575e-04
5.20524755e-04
5.19640551e-04
5.18762065e-04
5.17910881e-04
5.17092498e-04
5.16297546e-04
5.15509966e-04
5.14716384e-04
5.13911743e-04
5.13099350e-04
5.12286788e-04
5.11480897e-04
5.10684577e-04
5.09896426e-04
5.09112563e-04
5.08329131e-04
5.07544082e-04
5.06757602e-04
5.05971355e-04
5.05187248e-04
5.04406428e-04
5.03628927e-04
5.02853954e-04
5.02080513e-04
5.01307954e-04
5.00533680e-04
4.99743572e-04
4.98955112e-04
4.98179539e-04
4.97416432e-04
4.96658760e-04
4.95900416e-04
4.95139864e-04
4.94379039e-04
4.93620371e-04
4.92864846e-04
4.92111984e-04
4.91360834e-04
4.90610817e-04
4.89861886e-04
4.89114233e-04
4.88367995e-04
4.87623172e-04
4.86879714e-04
4.86137613e-04
4.85396916e-04
4.84657676e-04
4.83919909e-04
4.83183595e-04
4.82448710e-04
4.81715253e-04
4.80983243e-04
4.80252709e-04
4.79523670e-04
4.78796126e-04
4.78070061e-04
4.77345452e-04
4.76622271e-04
4.75900492e-04
4.75180085e-04
4.74461021e-04
4.73743273e-04
4.73026817e-04
4.72311633e-04
4.71597709e-04
4.70885039e-04
4.70173620e-04
4.69463458e-04
4.68754557e-04
4.68046926e-04
4.67340574e-04
4.66635511e-04
4.65931744e-04
4.65229281e-04
4.64528126e-04
4.63828282e-04
4.63129749e-04
4.62432527e-04
4.61736612e-04
4.61041998e-04
4.60348677e-04
4.59656638e-04
4.58965871e-04
4.58276362e-04
4.57588097e-04
4.56901062e-04
4.56215244e-04
4.55530632e-04
4.54847215e-04
4.54164988e-04
4.53483945e-04
4.52804083e-04
4.52125404e-04
4.51447908e-04
4.50771598e-04
4.50096478e-04
4.49422552e-04
4.48749824e-04
4.48078298e-04
4.47407976e-04
4.46738859e-04
4.46070946e-04
4.45404236e-04
4.44738725e-04
4.44074406e-04
4.43411273e-04
4.42749318e-04
4.42088532e-04
4.41428905e-04
4.40770428e-04
4.40112875e-04
4.39455968e-04
4.38800240e-04
4.38146001e-04
4.37493217e-04
4.36841666e-04
4.36191152e-04
4.35186179e-04
4.34076809e-04
4.33144178e-04
4.32443313e-04
4.31861764e-04
4.31270373e-04
4.30617763e-04
4.29926352e-04
4.29238068e-04
4.28572638e-04
4.27923282e-04
4.27275309e-04
4.26622370e-04
4.25968469e-04
4.25320375e-04
4.24680710e-04
4.24047098e-04
4.23415646e-04
4.22784250e-04
4.22153150e-04
4.21523376e-04
4.20895180e-04
4.20267771e-04
4.19640171e-04
4.19012142e-04
4.18384418e-04
4.17758209e-04
4.17134471e-04
4.16513463e-04
4.15894763e-04
4.15277606e-04
4.14661278e-04
4.14045380e-04
4.13429884e-04
4.12815046e-04
4.12201247e-04
4.11588831e-04
4.10978001e-04
4.10368783e-04
4.09761051e-04
4.09154599e-04
4.08549223e-04
4.07759720e-04
4.06517860e-04
4.05334715e-04
4.04483862e-04
4.03907100e-04
4.03400949e-04
4.02825485e-04
4.02172114e-04
4.01503765e-04
4.00869601e-04
4.00270051e-04
3.99676576e-04
3.99066870e-04
3.98441230e-04
3.97814851e-04
3.97201530e-04
3.96604435e-04
3.96017934e-04
3.95434600e-04
3.94850264e-04
3.94264448e-04
3.93678113e-04
3.93091720e-04
3.92504990e-04
3.91917772e-04
3.91330731e-04
3.90745214e-04
3.90162525e-04
3.89583257e-04
3.89007096e-04
3.88433117e-04
3.87860264e-04
3.87287742e-04
3.86715194e-04
3.86142672e-04
3.85570504e-04
3.84999121e-04
3.84428911e-04
3.83860113e-04
3.83292784e-04
3.82726818e-04
3.82162016e-04
3.81598171e-04
3.81035130e-04
3.80472831e-04
3.79911298e-04
3.79350613e-04
3.78790880e-04
3.78232189e-04
3.77674596e-04
3.77118115e-04
3.76562719e-04
3.76008357e-04
3.75454967e-04
3.74902493e-04
3.74350893e-04
3.73800149e-04
3.73250259e-04
3.72701233e-04
3.72153089e-04
3.71605839e-04
3.71059490e-04
3.70514045e-04
3.69969498e-04
3.69425845e-04
3.68883085e-04
3.68341223e-04
3.67800268e-04
3.67260230e-04
3.66721121e-04
3.66182948e-04
3.65645712e-04
3.65109405e-04
3.64574015e-04
3.63989340e-04
3.63357088e-04
3.62742679e-04
3.62171410e-04
3.61631271e-04
3.61100678e-04
3.60568185e-04
3.60033778e-04
3.59500631e-04
3.58969260e-04
3.58437861e-04
3.57905347e-04
3.57372751e-04
3.56842088e-04
3.56314531e-04
3.55789741e-04
3.55266570e-04
3.54744118e-04
3.54222194e-04
3.53701058e-04
3.53180938e-04
3.52661775e-04
3.52143324e-04
3.51625392e-04
3.51108001e-04
3.50591367e-04
3.50075773e-04
3.49561443e-04
3.49048475e-04
3.48536842e-04
3.48026428e-04
3.47517076e-04
3.47008635e-04
3.46500988e-04
3.45994066e-04
3.45487852e-04
3.44982362e-04
3.44477633e-04
3.43973704e-04
3.43470608e-04
3.42968363e-04
3.42466971e-04
3.41966411e-04
3.41466653e-04
3.40967659e-04
3.40469400e-04
3.39971866e-04
3.39475075e-04
3.38979071e-04
3.38483915e-04
3.37989672e-04
3.37496389e-04
3.37004088e-04
3.36512757e-04
3.36022357e-04
3.35532825e-04
3.35044094e-04
3.34556103e-04
3.34068810e-04
3.33582193e-04
3.33096252e-04
3.32611003e-04
3.32126472e-04
3.31642686e-04
3.31159671e-04
3.30677448e-04
3.30196030e-04
3.29715427e-04
3.29235642e-04
3.28756678e-04
3.28278532e-04
3.27801203e-04
3.27324682e-04
3.26848961e-04
3.26374027e-04
3.25899863e-04
3.25426455e-04
3.24953786e-04
3.24481844e-04
3.24010618e-04
3.23540105e-04
3.23070303e-04
3.22601216e-04
3.22132853e-04
3.21665222e-04
3.21198332e-04
3.20732194e-04
3.20266815e-04
3.19802200e-04
3.19338354e-04
3.18875276e-04
3.18412968e-04
3.17951425e-04
3.17490642e-04
3.17030615e-04
3.16571335e-04
3.16112793e-04
3.15654981e-04
3.15197890e-04
3.14741511e-04
3.14285837e-04
3.13830863e-04
3.13376586e-04
3.12923004e-04
3.12470120e-04
3.12017937e-04
3.11566461e-04
3.11115696e-04
3.10665650e-04
3.10216327e-04
3.09767732e-04
3.09319864e-04
3.08872726e-04
3.08426313e-04
3.07980621e-04
3.07535644e-04
3.07091377e-04
3.06647810e-04
3.06204939e-04
3.05762755e-04
3.05321255e-04
3.04880435e-04
3.04440293e-04
3.04000828e-04
3.03562042e-04
3.03123936e-04
3.02686514e-04
3.02241267e-04
3.01787721e-04
3.01339014e-04
3.00900536e-04
3.00469277e-04
3.00039381e-04
2.99607331e-04
2.99173281e-04
2.98739276e-04
2.98306976e-04
2.97876686e-04
2.97447766e-04
2.97019495e-04
2.96591583e-04
2.96164130e-04
2.95737342e-04
2.95311321e-04
2.94886047e-04
2.94461461e-04
2.94037540e-04
2.93614299e-04
2.93191756e-04
2.92769908e-04
2.92348734e-04
2.91928213e-04
2.91508339e-04
2.91089120e-04
2.90670564e-04
2.90252676e-04
2.89835452e-04
2.89418882e-04
2.89002961e-04
2.88587684e-04
2.88173051e-04
2.87759060e-04
2.87345711e-04
2.86933001e-04
2.86520930e-04
2.86109498e-04
2.85698704e-04
2.85288549e-04
2.84879034e-04
2.84470157e-04
2.84061918e-04
2.83654315e-04
2.83247349e-04
2.82841018e-04
2.82435322e-04
2.82030259e-04
2.81625828e-04
2.81222027e-04
2.80818852e-04
2.80416302e-04
2.80014374e-04
2.79613067e-04
2.79212380e-04
2.78812310e-04
2.78412858e-04
2.78014023e-04
2.77615803e-04
2.77218198e-04
2.76821208e-04
2.76424833e-04
2.76029071e-04
2.75633922e-04
2.75239386e-04
2.74845462e-04
2.74452148e-04
2.74059442e-04
2.73667344e-04
2.73275851e-04
2.72884962e-04
2.72494675e-04
2.72104990e-04
2.71715903e-04
2.71327416e-04
2.70939525e-04
2.70552230e-04
2.70165530e-04
2.69779425e-04
2.69393914e-04
2.69008996e-04
2.68624671e-04
2.68240938e-04
2.67857796e-04
2.67475244e-04
2.67093282e-04
2.66711908e-04
2.66331122e-04
2.65950921e-04
2.65571305e-04
2.65192272e-04
2.64813821e-04
2.64435951e-04
2.64058660e-04
2.63681947e-04
2.63305811e-04
2.62930251e-04
2.62555266e-04
2.62180856e-04
2.61807018e-04
2.61433754e-04
2.61061061e-04
2.60688939e-04
2.60317387e-04
2.59946406e-04
2.59575992e-04
2.59206146e-04
2.58464801e-04
2.57602080e-04
2.56936933e-04
2.56536620e-04
2.56268554e-04
2.55972276e-04
2.55580379e-04
2.55124828e-04
2.54672480e-04
2.54264067e-04
2.53897084e-04
2.53545551e-04
2.53187189e-04
2.52816214e-04
2.52439351e-04
2.52065256e-04
2.51697493e-04
2.51334273e-04
2.50972090e-04
2.50608973e-04
2.50245238e-04
2.49882300e-04
2.49521181e-04
2.49161893e-04
2.48803750e-04
2.48446057e-04
2.48088548e-04
2.47731401e-04
2.47374969e-04
2.47019504e-04
2.46665039e-04
2.46311446e-04
2.45958555e-04
2.45606258e-04
2.45254533e-04
2.44903411e-04
2.44552919e-04
2.44203058e-04
2.43853796e-04
2.43505087e-04
2.43156898e-04
2.42809213e-04
2.42462030e-04
2.42115358e-04
2.41767123e-04
2.41417366e-04
2.41069158e-04
2.40723743e-04
2.40380436e-04
2.40037918e-04
2.39695403e-04
2.39352911e-04
2.39010858e-04
2.38669566e-04
2.38329082e-04
2.37989286e-04
2.37650061e-04
2.37311375e-04
2.36973242e-04
2.36635661e-04
2.36298592e-04
2.35961990e-04
2.35625832e-04
2.35290135e-04
2.34954934e-04
2.34620261e-04
2.34286123e-04
2.33952512e-04
2.33619416e-04
2.33286831e-04
2.32954761e-04
2.32623218e-04
2.32292212e-04
2.31961750e-04
2.31631830e-04
2.31302444e-04
2.30973583e-04
2.30645237e-04
2.30317396e-04
2.29990051e-04
2.29663198e-04
2.29336830e-04
2.29010945e-04
2.28685539e-04
2.28360613e-04
2.28036164e-04
2.27710926e-04
2.27384717e-04
2.27059650e-04
2.26736610e-04
2.26415112e-04
2.26094205e-04
2.25773321e-04
2.25452498e-04
2.25132084e-04
2.24812354e-04
2.24493349e-04
2.24174953e-04
2.23857039e-04
2.23539555e-04
2.23222518e-04
2.22905960e-04
2.22589899e-04
2.22274325e-04
2.21959226e-04
2.21644595e-04
2.21330432e-04
2.21016737e-04
2.20703513e-04
2.20390756e-04
2.20078468e-04
2.19766652e-04
2.19455311e-04
2.19144450e-04
2.18834069e-04
2.18524166e-04
2.18214738e-04
2.17905784e-04
2.17597300e-04
2.17289286e-04
2.16981739e-04
2.16674656e-04
2.16368034e-04
2.16061871e-04
2.15756163e-04
2.15450910e-04
2.15146112e-04
2.14841767e-04
2.14537877e-04
2.14234441e-04
2.13931461e-04
2.13628939e-04
2.13326873e-04
2.13025267e-04
2.12724119e-04
2.12423431e-04
2.12123202e-04
2.11823431e-04
2.11524116e-04
2.11225256e-04
2.10926850e-04
2.10628894e-04
2.10331387e-04
2.10034327e-04
2.09737712e-04
2.09441539e-04
2.09145808e-04
2.08850518e-04
2.08555667e-04
2.08261255e-04
2.07967282e-04
2.07673749e-04
2.07380655e-04
2.07088000e-04
2.06795785e-04
2.06504009e-04
2.06212672e-04
2.05921774e-04
2.05631315e-04
2.05341292e-04
2.05051706e-04
2.04762554e-04
2.04473836e-04
2.04185550e-04
2.03897695e-04
2.03610270e-04
2.03323273e-04
2.03036703e-04
2.02750560e-04
2.02464843e-04
2.02179552e-04
2.01894687e-04
2.01610246e-04
2.01326231e-04
2.01042641e-04
2.00759476e-04
2.00476735e-04
2.00194419e-04
1.99912526e-04
1.99631057e-04
1.99350010e-04
1.99069384e-04
1.98789179e-04
1.98509393e-04
1.98230025e-04
1.97951074e-04
1.97672538e-04
1.97394418e-04
1.97116711e-04
1.96839417e-04
1.96562536e-04
1.96286065e-04
1.96010006e-04
1.95734358e-04
1.95459120e-04
1.95184291e-04
1.94909872e-04
1.94635861e-04
1.94362259e-04
1.94089064e-04
1.93816277e-04
1.93543896e-04
1.93271920e-04
1.93000350e-04
1.92729183e-04
1.92458419e-04
1.92188058e-04
1.91918098e-04
1.91648539e-04
1.91379380e-04
1.91110621e-04
1.90842260e-04
1.90574297e-04
1.90306732e-04
1.90039564e-04
1.89772793e-04
1.89506418e-04
1.89240439e-04
1.88974855e-04
1.88709667e-04
1.88444872e-04
1.88180472e-04
1.87916464e-04
1.87652849e-04
1.87389625e-04
1.87126792e-04
1.86864349e-04
1.86602296e-04
1.86340630e-04
1.86079353e-04
1.85818462e-04
1.85557957e-04
1.85297838e-04
1.85038104e-04
1.84778754e-04
1.84519788e-04
1.84261205e-04
1.84003004e-04
1.83745186e-04
1.83487748e-04
1.83230692e-04
1.82974016e-04
1.82717720e-04
1.82461803e-04
1.82206264e-04
1.81951104e-04
1.81696320e-04
1.81441913e-04
1.81187882e-04
1.80934226e-04
1.80680945e-04
1.80428037e-04
1.80175503e-04
1.79923342e-04
1.79671553e-04
1.79420136e-04
1.79169090e-04
1.78918415e-04
1.78668109e-04
1.78418174e-04
1.78168607e-04
1.77919409e-04
1.77670579e-04
1.77422116e-04
1.77174019e-04
1.76926289e-04
1.76678925e-04
1.76431925e-04
1.76185290e-04
1.75939018e-04
1.75693109e-04
1.75447563e-04
1.75202378e-04
1.74957554e-04
1.74713091e-04
1.74468987e-04
1.74225243e-04
1.73981858e-04
1.73738831e-04
1.73496161e-04
1.72971651e-04
1.72160249e-04
1.71490536e-04
1.71139656e-04
1.71003328e-04
1.70880623e-04
1.70652739e-04
1.70329955e-04
1.69989041e-04
1.69691055e-04
1.69445099e-04
1.69223780e-04
1.68997348e-04
1.68754566e-04
1.68501662e-04
1.68249870e-04
1.68005303e-04
1.67767072e-04
1.67531145e-04
1.67294557e-04
1.67056874e-04
1.66819186e-04
1.66582538e-04
1.66347183e-04
1.66112792e-04
1.65878979e-04
1.65645588e-04
1.65412641e-04
1.65180157e-04
1.64948073e-04
1.64716289e-04
1.64484760e-04
1.64253534e-04
1.64022709e-04
1.63792364e-04
1.63562517e-04
1.63333132e-04
1.63104150e-04
1.62875525e-04
1.62647241e-04
1.62419302e-04
1.62191719e-04
1.61964498e-04
1.61737639e-04
1.61511137e-04
1.61284984e-04
1.61059180e-04
1.60833723e-04
1.60608618e-04
1.60383867e-04
1.60159471e-04
1.59935430e-04
1.59711741e-04
1.59488403e-04
1.59265412e-04
1.59042764e-04
1.58820456e-04
1.58598484e-04
1.58376846e-04
1.58155542e-04
1.57934573e-04
1.57713941e-04
1.57493667e-04
1.57273778e-04
1.57054247e-04
1.56724160e-04
1.56338865e-04
1.56003861e-04
1.55752606e-04
1.55554473e-04
1.55362463e-04
1.55150442e-04
1.54919291e-04
1.54682333e-04
1.54449889e-04
1.54223971e-04
1.54001706e-04
1.53780486e-04
1.53560061e-04
1.53341443e-04
1.53125081e-04
1.52910212e-04
1.52695529e-04
1.52480161e-04
1.52264092e-04
1.52047899e-04
1.51832225e-04
1.51617423e-04
1.51403522e-04
1.51190379e-04
1.50977826e-04
1.50765732e-04
1.50553997e-04
1.50342533e-04
1.50131281e-04
1.49920230e-04
1.49709426e-04
1.49498951e-04
1.49288885e-04
1.49079271e-04
1.48870101e-04
1.48661333e-04
1.48452908e-04
1.48244777e-04
1.48036918e-04
1.47829329e-04
1.47622027e-04
1.47415036e-04
1.47208374e-04
1.47002053e-04
1.46796075e-04
1.46590435e-04
1.46385128e-04
1.46180143e-04
1.45975473e-04
1.45771111e-04
1.45567052e-04
1.45363293e-04
1.45159837e-04
1.44956686e-04
1.44753845e-04
1.44551316e-04
1.44349100e-04
1.44147194e-04
1.43945594e-04
1.43744294e-04
1.43543292e-04
1.43342585e-04
1.43142176e-04
1.42942067e-04
1.42742260e-04
1.42542756e-04
1.42343557e-04
1.42144659e-04
1.41946061e-04
1.41747759e-04
1.41549752e-04
1.41352038e-04
1.41154617e-04
1.40957490e-04
1.40760656e-04
1.40564115e-04
1.40367868e-04
1.40171913e-04
1.39976250e-04
1.39780876e-04
1.39585792e-04
1.39390997e-04
1.39196490e-04
1.39002272e-04
1.38808342e-04
1.38614701e-04
1.38421347e-04
1.38228280e-04
1.38035500e-04
1.37843005e-04
1.37650794e-04
1.37458867e-04
1.37267224e-04
1.37075864e-04
1.36884786e-04
1.36693990e-04
1.36503476e-04
1.36313243e-04
1.36123290e-04
1.35933617e-04
1.35744223e-04
1.35555109e-04
1.35366274e-04
1.35177716e-04
1.34989436e-04
1.34801434e-04
1.34613708e-04
1.34426259e-04
1.34239086e-04
1.34052187e-04
1.33865564e-04
1.33679215e-04
1.33493140e-04
1.33307338e-04
1.33121809e-04
1.32936552e-04
1.32751567e-04
1.32566854e-04
1.32382412e-04
1.32198240e-04
1.32014338e-04
1.31830707e-04
1.31647344e-04
1.31464250e-04
1.31281424e-04
1.31098867e-04
1.30916576e-04
1.30734553e-04
1.30552797e-04
1.30371306e-04
1.30190081e-04
1.30009121e-04
1.29828426e-04
1.29647996e-04
1.29467829e-04
1.29287926e-04
1.29108285e-04
1.28928908e-04
1.28749792e-04
1.28570938e-04
1.28392345e-04
1.28214014e-04
1.28035942e-04
1.27858131e-04
1.27680579e-04
1.27503286e-04
1.27326253e-04
1.27149477e-04
1.26972959e-04
1.26796699e-04
1.26620696e-04
1.26444949e-04
1.26269459e-04
1.26094224e-04
1.25919245e-04
1.25744521e-04
1.25570051e-04
1.25395836e-04
1.25221874e-04
1.25048165e-04
1.24874710e-04
1.24701507e-04
1.24528556e-04
1.24355857e-04
1.24183409e-04
1.24011212e-04
1.23839265e-04
1.23667569e-04
1.23496122e-04
1.23324925e-04
1.23153976e-04
1.22983276e-04
1.22812824e-04
1.22642620e-04
1.22472663e-04
1.22302953e-04
1.22133490e-04
1.21964272e-04
1.21795301e-04
1.21626574e-04
1.21458093e-04
1.21289856e-04
1.21121863e-04
1.20954115e-04
1.20786609e-04
1.20619347e-04
1.20452327e-04
1.20285549e-04
1.20119013e-04
1.19952719e-04
1.19786666e-04
1.19620853e-04
1.19455281e-04
1.19289949e-04
1.19124856e-04
1.18960002e-04
1.18795388e-04
1.18631011e-04
1.18466873e-04
1.18302973e-04
1.18139309e-04
1.17975883e-04
1.17812693e-04
1.17649740e-04
1.17487022e-04
1.17324540e-04
1.17162293e-04
1.17000280e-04
1.16838502e-04
1.16676958e-04
1.16515648e-04
1.16354570e-04
1.16193726e-04
1.16033114e-04
1.15872734e-04
1.15712587e-04
1.15552670e-04
1.15392985e-04
1.15233530e-04
1.15074305e-04
1.14915311e-04
1.14756546e-04
1.14598011e-04
1.14439704e-04
1.14281626e-04
1.14123776e-04
1.13966154e-04
1.13808759e-04
1.13651592e-04
1.13494651e-04
1.13337937e-04
1.13181449e-04
1.13025186e-04
1.12869149e-04
1.12713337e-04
1.12557749e-04
1.12402386e-04
1.12247247e-04
1.12092331e-04
1.11937639e-04
1.11783170e-04
1.11628923e-04
1.11474898e-04
1.11321096e-04
1.11167515e-04
1.11014155e-04
1.10861016e-04
1.10708097e-04
1.10555399e-04
1.10402920e-04
1.10250661e-04
1.10098621e-04
1.09946800e-04
1.09795198e-04
1.09643813e-04
1.09492647e-04
1.09341698e-04
1.09190966e-04
1.09040451e-04
1.08890152e-04
1.08740069e-04
1.08590202e-04
1.08440551e-04
1.08291115e-04
1.08141894e-04
1.07992887e-04
1.07844094e-04
1.07695515e-04
1.07547149e-04
1.07398997e-04
1.07251058e-04
1.07103331e-04
1.06955816e-04
1.06808513e-04
1.06661421e-04
1.06514541e-04
1.06367872e-04
1.06221413e-04
1.06075164e-04
1.05929126e-04
1.05783297e-04
1.05637677e-04
1.05492266e-04
1.05347063e-04
1.05202069e-04
1.05057283e-04
1.04912705e-04
1.04768334e-04
1.04624170e-04
1.04480213e-04
1.04336462e-04
1.04192917e-04
1.04049578e-04
1.03906444e-04
1.03763516e-04
1.03620792e-04
1.03478273e-04
1.03335958e-04
1.03193847e-04
1.03051939e-04
1.02910235e-04
1.02768734e-04
1.02627435e-04
1.02486339e-04
1.02345444e-04
1.02204752e-04
1.02064261e-04
1.01923970e-04
1.01783881e-04
1.01643992e-04
1.01504304e-04
1.01364815e-04
1.01225526e-04
1.01086436e-04
1.00947545e-04
1.00808852e-04
1.00670358e-04
1.00532062e-04
1.00393964e-04
1.00256063e-04
1.00118360e-04
9.99808532e-05
9.98435430e-05
9.97064291e-05
9.95695111e-05
9.94327888e-05
9.92962619e-05
9.91599300e-05
9.90237929e-05
9.88878502e-05
9.87521018e-05
9.86165472e-05
9.84811862e-05
9.83460185e-05
9.82110438e-05
9.80762619e-05
9.79416723e-05
9.78072748e-05
9.76730692e-05
9.75390552e-05
9.74052324e-05
9.72716005e-05
9.71381593e-05
9.70049085e-05
9.68718478e-05
9.67389770e-05
9.66062956e-05
9.64738035e-05
9.63415003e-05
9.62093858e-05
9.60774596e-05
9.59457216e-05
9.58141713e-05
9.56828086e-05
9.55516331e-05
9.54206446e-05
9.52898428e-05
9.51592273e-05
9.50287980e-05
9.48985545e-05
9.47684965e-05
9.46386238e-05
9.45089361e-05
9.43794331e-05
9.42501145e-05
9.41209801e-05
9.39920296e-05
9.38632627e-05
9.37346791e-05
9.36062785e-05
9.34780607e-05
9.33500254e-05
9.32221724e-05
9.30945012e-05
9.29670118e-05
9.28397037e-05
9.27125768e-05
9.25856307e-05
9.24588652e-05
9.23322800e-05
9.22058748e-05
9.20796494e-05
9.19536035e-05
9.18277368e-05
9.17020491e-05
9.15765401e-05
9.14512094e-05
9.13260570e-05
9.12010824e-05
9.10762854e-05
9.09516658e-05
9.08272232e-05
9.07029575e-05
9.05788683e-05
9.04549554e-05
9.03312185e-05
9.02076574e-05
9.00842718e-05
8.99610614e-05
8.98380259e-05
8.97151652e-05
8.95924789e-05
8.94699668e-05
8.93476286e-05
8.92254640e-05
8.91034729e-05
8.89816548e-05
8.88600097e-05
8.87385372e-05
8.86172370e-05
8.84961090e-05
8.83751528e-05
8.82543681e-05
8.81337548e-05
8.80133126e-05
8.78930412e-05
8.77729403e-05
8.76530098e-05
8.75332493e-05
8.74136586e-05
8.72942375e-05
8.71749856e-05
8.70559028e-05
8.69369887e-05
8.68182432e-05
8.66996660e-05
8.65812568e-05
8.64630153e-05
8.63449414e-05
8.62270348e-05
8.61092952e-05
8.59917223e-05
8.58743160e-05
8.57570760e-05
8.56400020e-05
8.55230938e-05
8.54063511e-05
8.52897737e-05
8.51733613e-05
8.50571138e-05
8.49410308e-05
8.48251120e-05
8.47093574e-05
8.45937665e-05
8.44783393e-05
8.43630753e-05
8.42479745e-05
8.41330364e-05
8.40182610e-05
8.39036479e-05
8.37891970e-05
8.36749079e-05
8.35607804e-05
8.34468143e-05
8.33330094e-05
8.32193654e-05
8.31058820e-05
8.29925591e-05
8.28793964e-05
8.27663936e-05
8.26535505e-05
8.25408669e-05
8.24283426e-05
8.23159773e-05
8.22037707e-05
8.20917226e-05
8.19798329e-05
8.18681012e-05
8.17565273e-05
8.16451110e-05
8.15338521e-05
8.14227503e-05
8.13118054e-05
8.12010171e-05
8.10903853e-05
8.09799096e-05
8.08695900e-05
8.07594260e-05
8.06494175e-05
8.05395643e-05
8.04298662e-05
8.03203228e-05
8.02109340e-05
8.01016996e-05
7.99926193e-05
7.98836928e-05
7.97749200e-05
7.96663007e-05
7.95578346e-05
7.94495214e-05
7.93413610e-05
7.92333531e-05
7.91254975e-05
7.90177940e-05
7.89102423e-05
7.88028423e-05
7.86955936e-05
7.85884961e-05
7.84815496e-05
7.83747538e-05
7.82681085e-05
7.81616135e-05
7.80552685e-05
7.79490734e-05
7.78430279e-05
7.77371318e-05
7.76313848e-05
7.75257868e-05
7.74203376e-05
7.73150368e-05
7.72098843e-05
7.71048799e-05
7.70000234e-05
7.68953145e-05
7.67907530e-05
7.66863387e-05
7.65820714e-05
7.64779508e-05
7.63739768e-05
7.62701492e-05
7.61664676e-05
7.60629319e-05
7.59595420e-05
7.58562975e-05
7.57531982e-05
7.55974780e-05
7.53812890e-05
7.51863241e-05
7.50497963e-05
7.49572687e-05
7.48741813e-05
7.47773617e-05
7.46646775e-05
7.45461910e-05
7.44315043e-05
7.43237141e-05
7.42207835e-05
7.41195502e-05
7.40181786e-05
7.39162227e-05
7.38137182e-05
7.37106794e-05
7.36072219e-05
7.35037735e-05
7.34009507e-05
7.32991836e-05
7.31984500e-05
7.30983382e-05
7.29983501e-05
7.28981885e-05
7.27978467e-05
7.26975025e-05
7.25973457e-05
7.24974682e-05
7.23978585e-05
7.22984600e-05
7.21992301e-05
7.21001614e-05
7.20012683e-05
7.19025610e-05
7.18040318e-05
7.17056569e-05
7.16074098e-05
7.15092743e-05
7.14112514e-05
7.13133570e-05
7.12156152e-05
7.11180492e-05
7.10206749e-05
7.09234964e-05
7.08265066e-05
7.07296889e-05
7.06330211e-05
7.05364802e-05
7.04400456e-05
7.03437034e-05
7.02474480e-05
7.01512830e-05
7.00552207e-05
6.99592796e-05
6.98634807e-05
6.97678436e-05
6.96723834e-05
6.95771082e-05
6.94820190e-05
6.93871098e-05
6.92923703e-05
6.91977872e-05
6.91033471e-05
6.90090380e-05
6.89148504e-05
6.88207782e-05
6.87268188e-05
6.86329724e-05
6.85392419e-05
6.84456314e-05
6.83521457e-05
6.82587894e-05
6.81655662e-05
6.80724791e-05
6.79795297e-05
6.78867190e-05
6.77940470e-05
6.77015132e-05
6.76091167e-05
6.75168562e-05
6.74247304e-05
6.73335203e-05
6.72433941e-05
6.71535376e-05
6.70634145e-05
6.69728297e-05
6.68818574e-05
6.67907003e-05
6.66995542e-05
6.66085306e-05
6.65176468e-05
6.64268608e-05
6.63361212e-05
6.62454029e-05
6.61547191e-05
6.60641107e-05
6.59736257e-05
6.58833003e-05
6.57931495e-05
6.57031683e-05
6.56133402e-05
6.55236483e-05
6.54340822e-05
6.53446414e-05
6.52553329e-05
6.51661668e-05
6.50771519e-05
6.49882930e-05
6.48995900e-05
6.48110390e-05
6.47226347e-05
6.46343714e-05
6.45462445e-05
6.44582508e-05
6.43703874e-05
6.42826525e-05
6.41950440e-05
6.41075601e-05
6.40201993e-05
6.39329607e-05
6.38458439e-05
6.37588495e-05
6.36719784e-05
6.35852317e-05
6.34986106e-05
6.34121157e-05
6.33257476e-05
6.32395061e-05
6.31533909e-05
6.30674013e-05
6.29815366e-05
6.28957959e-05
6.28101784e-05
6.27246832e-05
6.26393098e-05
6.25540573e-05
6.24689256e-05
6.23839140e-05
6.22990225e-05
6.22142509e-05
6.21295991e-05
6.20450670e-05
6.19606544e-05
6.18763612e-05
6.17921872e-05
6.17081320e-05
6.16241953e-05
6.15403768e-05
6.14566763e-05
6.13730936e-05
6.12896284e-05
6.12062807e-05
6.11230505e-05
6.10399379e-05
6.09569431e-05
6.08740661e-05
6.07913070e-05
6.07086658e-05
6.06261425e-05
6.05437369e-05
6.04614487e-05
6.03792775e-05
6.02972229e-05
6.02152842e-05
6.01334609e-05
6.00517524e-05
5.99701583e-05
5.98886780e-05
5.98073112e-05
5.97260577e-05
5.96449173e-05
5.95638899e-05
5.94829756e-05
5.94021744e-05
5.93214863e-05
5.92409115e-05
5.91604500e-05
5.90801017e-05
5.89998667e-05
5.89197447e-05
5.88397356e-05
5.87598391e-05
5.86800550e-05
5.86003830e-05
5.85208228e-05
5.84413741e-05
5.83620367e-05
5.82828102e-05
5.82036945e-05
5.81246894e-05
5.80457947e-05
5.79670102e-05
5.78883360e-05
5.78097717e-05
5.77313174e-05
5.76529728e-05
5.75747380e-05
5.74966127e-05
5.74185969e-05
5.73406905e-05
5.72628933e-05
5.71852053e-05
5.71076264e-05
5.70301564e-05
5.69527953e-05
5.68755429e-05
5.67983992e-05
5.67213640e-05
5.66444372e-05
5.65676185e-05
5.64909077e-05
5.64143047e-05
5.63378092e-05
5.62614209e-05
5.61851397e-05
5.61089651e-05
5.60328971e-05
5.59569353e-05
5.58810796e-05
5.58053298e-05
5.57296856e-05
5.56541470e-05
5.55787138e-05
5.55033859e-05
5.54281632e-05
5.53530455e-05
5.52780329e-05
5.52031250e-05
5.51283220e-05
5.50536235e-05
5.49790294e-05
5.49045397e-05
5.48301540e-05
5.47558723e-05
5.46816944e-05
5.46076201e-05
5.45336491e-05
5.44597814e-05
5.43860168e-05
5.43123551e-05
5.42387962e-05
5.41653399e-05
5.40919861e-05
5.40187347e-05
5.39455856e-05
5.38725386e-05
5.37995936e-05
5.37267505e-05
5.36540092e-05
5.35813695e-05
5.35088314e-05
5.34363947e-05
5.33640592e-05
5.32918249e-05
5.32196916e-05
5.31476591e-05
5.30757273e-05
5.30038960e-05
5.29321651e-05
5.28605343e-05
5.27890037e-05
5.27175729e-05
5.26462417e-05
5.25750101e-05
5.25038779e-05
5.24328448e-05
5.23619108e-05
5.22910756e-05
5.22203390e-05
5.21497010e-05
5.20791615e-05
5.20087201e-05
5.19383769e-05
5.18681316e-05
5.17979842e-05
5.17279346e-05
5.16579825e-05
5.15881278e-05
5.15183705e-05
5.14487104e-05
5.13791473e-05
5.13096811e-05
5.12403116e-05
5.11710388e-05
5.11018624e-05
5.10327823e-05
5.09637984e-05
5.08949105e-05
5.08261186e-05
5.07574223e-05
5.06888217e-05
5.06203165e-05
5.05519066e-05
5.04835920e-05
5.04153725e-05
5.03472479e-05
5.02792182e-05
5.02112831e-05
5.01434427e-05
5.00756967e-05
5.00080451e-05
4.99404876e-05
4.98730242e-05
4.98056548e-05
4.97383792e-05
4.96711972e-05
4.96041088e-05
4.95371137e-05
4.94702119e-05
4.94034032e-05
4.93366875e-05
4.92700646e-05
4.92035343e-05
4.91370966e-05
4.90707513e-05
4.90044982e-05
4.89383372e-05
4.88722681e-05
4.88062909e-05
4.87404054e-05
4.86746114e-05
4.86089088e-05
4.85432975e-05
4.84777773e-05
4.84123481e-05
4.83470099e-05
4.82817624e-05
4.82166055e-05
4.81515391e-05
4.80865630e-05
4.80216772e-05
4.79568815e-05
4.78921758e-05
4.78275599e-05
4.77630337e-05
4.76985971e-05
4.76342500e-05
4.75699921e-05
4.75058235e-05
4.74417440e-05
4.73777534e-05
4.73138516e-05
4.72500386e-05
4.71863141e-05
4.71226781e-05
4.70591304e-05
4.69956709e-05
4.69322995e-05
4.68690161e-05
4.68058205e-05
4.67427127e-05
4.66796924e-05
4.66167597e-05
4.65539142e-05
4.64911560e-05
4.64284849e-05
4.63659007e-05
4.63034034e-05
4.62409928e-05
4.61786688e-05
4.61164312e-05
4.60542799e-05
4.59922148e-05
4.59302358e-05
4.58683427e-05
4.58065354e-05
4.57448138e-05
4.56831777e-05
4.56216271e-05
4.55601618e-05
4.54987816e-05
4.54374865e-05
4.53762764e-05
4.53151510e-05
4.52541103e-05
4.51931542e-05
4.51322825e-05
4.50714952e-05
4.50107920e-05
4.49501730e-05
4.48896379e-05
4.48291866e-05
4.47688191e-05
4.47085351e-05
4.46483346e-05
4.45882175e-05
4.45281837e-05
4.44682329e-05
4.44083652e-05
4.43485803e-05
4.42888783e-05
4.42292589e-05
4.41697220e-05
4.41102675e-05
4.40508954e-05
4.39916054e-05
4.39323975e-05
4.38732716e-05
4.38142275e-05
4.37552651e-05
4.36963843e-05
4.36375851e-05
4.35788672e-05
4.35202305e-05
4.34616751e-05
4.34032006e-05
4.33448070e-05
4.32864943e-05
4.32282622e-05
4.31701106e-05
4.31120395e-05
4.30540487e-05
4.29961381e-05
4.29383076e-05
4.28805571e-05
4.28228864e-05
4.27652955e-05
4.27077842e-05
4.26503523e-05
4.25929999e-05
4.25357268e-05
4.24785328e-05
4.24214178e-05
4.23643818e-05
4.23074246e-05
4.22505461e-05
4.21937463e-05
4.21370248e-05
4.20803818e-05
4.20238170e-05
4.19673304e-05
4.19109218e-05
4.18545911e-05
4.17983382e-05
4.17421630e-05
4.16860654e-05
4.16300453e-05
4.15741026e-05
4.15182371e-05
4.14624488e-05
4.14067375e-05
4.13511031e-05
4.12955456e-05
4.12400648e-05
4.11846606e-05
4.11293328e-05
4.10740815e-05
4.10189065e-05
4.09638076e-05
4.09087848e-05
4.08538379e-05
4.07989669e-05
4.07441717e-05
4.06894520e-05
4.06348079e-05
4.05802392e-05
4.05257458e-05
4.04713276e-05
4.04169845e-05
4.03627163e-05
4.03085231e-05
4.02544046e-05
4.02003607e-05
4.01463914e-05
4.00924965e-05
4.00386760e-05
3.99849297e-05
3.99312575e-05
3.98776593e-05
3.98241351e-05
3.97706846e-05
3.97173078e-05
3.96640047e-05
3.96107750e-05
3.95576186e-05
3.95045356e-05
3.94515257e-05
3.93985889e-05
3.93457250e-05
3.92929340e-05
3.92402158e-05
3.91875702e-05
3.91349972e-05
3.90824966e-05
3.90300683e-05
3.89777123e-05
3.89254284e-05
3.88732165e-05
3.88210766e-05
3.87690085e-05
3.87170121e-05
3.86650874e-05
3.86132342e-05
3.85614524e-05
3.85097419e-05
3.84581026e-05
3.84065345e-05
3.83550374e-05
3.83036112e-05
3.82522558e-05
3.82009711e-05
3.81497571e-05
3.80986135e-05
3.80475404e-05
3.79965376e-05
3.79456050e-05
3.78947425e-05
3.78439500e-05
3.77932274e-05
3.77425746e-05
3.76919916e-05
3.76414782e-05
3.75910342e-05
3.75406597e-05
3.74903545e-05
3.74401185e-05
3.73914642e-05
3.73448481e-05
3.72986318e-05
3.72516560e-05
3.72033287e-05
3.71535671e-05
3.71026411e-05
3.70509920e-05
3.69990822e-05
3.69472990e-05
3.68959088e-05
3.68450511e-05
3.67947553e-05
3.67449696e-05
3.66955933e-05
3.66465070e-05
3.65975967e-05
3.65487698e-05
3.64999635e-05
3.64511457e-05
3.64023110e-05
3.63534731e-05
3.63046570e-05
3.62558903e-05
3.62071980e-05
3.61585978e-05
3.61100989e-05
3.60617025e-05
3.60134034e-05
3.59651925e-05
3.59170597e-05
3.58689955e-05
3.58209895e-05
3.57730218e-05
3.57251023e-05
3.56772403e-05
3.56294424e-05
3.55817130e-05
3.55340557e-05
3.54864726e-05
3.54389645e-05
3.53915301e-05
3.53441675e-05
3.52968740e-05
3.52496476e-05
3.52024868e-05
3.51553906e-05
3.51083589e-05
3.50613915e-05
3.50144885e-05
3.49676502e-05
3.49208766e-05
3.48741678e-05
3.48275238e-05
3.47809444e-05
3.47344295e-05
3.46879789e-05
3.46415923e-05
3.45952695e-05
3.45490104e-05
3.45028148e-05
3.44563041e-05
3.44096880e-05
3.43632860e-05
3.43172112e-05
3.42713870e-05
3.42256737e-05
3.41799741e-05
3.41342639e-05
3.40885671e-05
3.40429188e-05
3.39973446e-05
3.39518563e-05
3.39064553e-05
3.38611363e-05
3.38158896e-05
3.37707043e-05
3.37255719e-05
3.36804898e-05
3.36354611e-05
3.35904924e-05
3.35455901e-05
3.35007573e-05
3.34559932e-05
3.34112940e-05
3.33666554e-05
3.33220744e-05
3.32775506e-05
3.32330853e-05
3.31886810e-05
3.31443396e-05
3.31000618e-05
3.30558467e-05
3.30116931e-05
3.29675994e-05
3.29235648e-05
3.28795894e-05
3.28356737e-05
3.27918184e-05
3.27480239e-05
3.27042901e-05
3.26606167e-05
3.26170033e-05
3.25734492e-05
3.25299545e-05
3.24865190e-05
3.24431430e-05
3.23998266e-05
3.23565697e-05
3.23133724e-05
3.22702343e-05
3.22271553e-05
3.21841352e-05
3.21411739e-05
3.20982714e-05
3.20554276e-05
3.20126425e-05
3.19699160e-05
3.19272481e-05
3.18846386e-05
3.18420874e-05
3.17995944e-05
3.17571596e-05
3.17147828e-05
3.16724641e-05
3.16302033e-05
3.15880004e-05
3.15458552e-05
3.15037678e-05
3.14617379e-05
3.14197655e-05
3.13778505e-05
3.13359929e-05
3.12941926e-05
3.12524494e-05
3.12107634e-05
3.11691343e-05
3.11275623e-05
3.10860470e-05
3.10445886e-05
3.10031869e-05
3.09618418e-05
3.09205532e-05
3.08793211e-05
3.08381454e-05
3.07970260e-05
3.07559629e-05
3.07149558e-05
3.06740049e-05
3.06331099e-05
3.05922708e-05
3.05514876e-05
3.05107601e-05
3.04700882e-05
3.04294720e-05
3.03889113e-05
3.03484060e-05
3.03079561e-05
3.02675614e-05
3.02272220e-05
3.01869376e-05
3.01467083e-05
3.01065340e-05
3.00664146e-05
3.00263500e-05
2.99863401e-05
2.99463849e-05
2.99064842e-05
2.98666381e-05
2.98268464e-05
2.97871090e-05
2.97474259e-05
2.97077970e-05
2.96682222e-05
2.96287015e-05
2.95892347e-05
2.95498218e-05
2.95104628e-05
2.94711575e-05
2.94319058e-05
2.93927077e-05
2.93535632e-05
2.93144721e-05
2.92754343e-05
2.92364499e-05
2.91975186e-05
2.91586405e-05
2.91198154e-05
2.90810434e-05
2.90423242e-05
2.90036579e-05
2.89650443e-05
2.89264835e-05
2.88879752e-05
2.88495195e-05
2.88111163e-05
2.87727654e-05
2.87344669e-05
2.86962206e-05
2.86580265e-05
2.86198845e-05
2.85817945e-05
2.85437565e-05
2.85057703e-05
2.84678360e-05
2.84299533e-05
2.83921224e-05
2.83543430e-05
2.83166152e-05
2.82789388e-05
2.82413137e-05
2.82037400e-05
2.81662175e-05
2.81287461e-05
2.80913258e-05
2.80539566e-05
2.80166382e-05
2.79793708e-05
2.79421541e-05
2.79049882e-05
2.78678729e-05
2.78308082e-05
2.77937940e-05
2.77568303e-05
2.77199169e-05
2.76830538e-05
2.76462410e-05
2.76094783e-05
2.75727657e-05
2.75361031e-05
2.74994904e-05
2.74629277e-05
2.74264147e-05
2.73899515e-05
2.73535379e-05
2.73171740e-05
2.72808595e-05
2.72445946e-05
2.72083790e-05
2.71722127e-05
2.71360957e-05
2.71000279e-05
2.70640092e-05
2.70280395e-05
2.69921188e-05
2.69562470e-05
2.69204240e-05
2.68846498e-05
2.68489243e-05
2.68132475e-05
2.67776192e-05
2.67420394e-05
2.67065080e-05
2.66710250e-05
2.66355903e-05
2.66002038e-05
2.65648655e-05
2.65295752e-05
2.64943330e-05
2.64591387e-05
2.64239923e-05
2.63888938e-05
2.63538429e-05
2.63188398e-05
2.62838843e-05
2.62489764e-05
2.62141159e-05
2.61793028e-05
2.61445371e-05
2.61098187e-05
2.60751476e-05
2.60405235e-05
2.60059466e-05
2.59714167e-05
2.59369337e-05
2.59024976e-05
2.58681084e-05
2.58337659e-05
2.57994701e-05
2.57652209e-05
2.57310183e-05
2.56968622e-05
2.56627526e-05
2.56286893e-05
2.55946723e-05
2.55607015e-05
2.55267769e-05
2.54928985e-05
2.54590660e-05
2.54252796e-05
2.53915391e-05
2.53578444e-05
2.53241955e-05
2.52905923e-05
2.52570348e-05
2.52235229e-05
2.51900565e-05
2.51566356e-05
2.51232601e-05
2.50899300e-05
2.50566451e-05
2.50234054e-05
2.49902109e-05
2.49570615e-05
2.49239571e-05
2.48908976e-05
2.48578831e-05
2.48249134e-05
2.47919885e-05
2.47591082e-05
2.47262727e-05
2.46934817e-05
2.46607352e-05
2.46280333e-05
2.45953757e-05
2.45627624e-05
2.45301934e-05
2.44976687e-05
2.44651881e-05
2.44327515e-05
2.44003590e-05
2.43680105e-05
2.43357059e-05
2.43034451e-05
2.42712282e-05
2.42390549e-05
2.42069253e-05
2.41748393e-05
2.41427968e-05
2.41107979e-05
2.40788423e-05
2.40469301e-05
2.40150612e-05
2.39832355e-05
2.39514531e-05
2.39197137e-05
2.38880174e-05
2.38563640e-05
2.38247537e-05
2.37931862e-05
2.37616615e-05
2.37301795e-05
2.36987403e-05
2.36673437e-05
2.36359897e-05
2.36046782e-05
2.35734091e-05
2.35421825e-05
2.35109982e-05
2.34798562e-05
2.34487564e-05
2.34176988e-05
2.33866832e-05
2.33557098e-05
2.33247783e-05
2.32938887e-05
2.32630410e-05
2.32322352e-05
2.32014710e-05
2.31707486e-05
2.31400678e-05
2.31094286e-05
2.30788310e-05
2.30482747e-05
2.30177599e-05
2.29872865e-05
2.29568543e-05
2.29264634e-05
2.28961136e-05
2.28658050e-05
2.28355374e-05
2.28053108e-05
2.27751252e-05
2.27449804e-05
2.27148765e-05
2.26848134e-05
2.26547910e-05
2.26248093e-05
2.25948681e-05
2.25649676e-05
2.25351075e-05
2.25052878e-05
2.24755085e-05
2.24457696e-05
2.24160709e-05
2.23864125e-05
2.23567941e-05
2.23272159e-05
2.22976778e-05
2.22681796e-05
2.22387214e-05
2.22093030e-05
2.21799245e-05
2.21505857e-05
2.21212866e-05
2.20920272e-05
2.20628074e-05
2.20336272e-05
2.20044864e-05
2.19753851e-05
2.19463231e-05
2.19173005e-05
2.18883171e-05
2.18593730e-05
2.18304680e-05
2.18016022e-05
2.17727754e-05
2.17439876e-05
2.17152387e-05
2.16865287e-05
2.16578576e-05
2.16292253e-05
2.16006316e-05
2.15720767e-05
2.15435604e-05
2.15150826e-05
2.14866434e-05
2.14582426e-05
2.14298802e-05
2.14015562e-05
2.13732705e-05
2.13450230e-05
2.13168138e-05
2.12886426e-05
2.12605096e-05
2.12324146e-05
2.12043576e-05
2.11763385e-05
2.11483573e-05
2.11204139e-05
2.10925083e-05
2.10646404e-05
2.10368101e-05
2.10090175e-05
2.09812625e-05
2.09535449e-05
2.09258648e-05
2.08982222e-05
2.08706168e-05
2.08430488e-05
2.08155180e-05
2.07880245e-05
2.07605681e-05
2.07331487e-05
2.07057665e-05
2.06784212e-05
2.06511128e-05
2.06238414e-05
2.05966068e-05
2.05694089e-05
2.05422478e-05
2.05151234e-05
2.04880357e-05
2.04609845e-05
2.04339698e-05
2.04069917e-05
2.03800499e-05
2.03531446e-05
2.03262756e-05
2.02994428e-05
2.02726463e-05
2.02458860e-05
2.02191618e-05
2.01924737e-05
2.01658216e-05
2.01392055e-05
2.01126253e-05
2.00860811e-05
2.00595726e-05
2.00330999e-05
2.00066630e-05
1.99802617e-05
1.99538961e-05
1.99275660e-05
1.99012715e-05
1.98750125e-05
1.98487889e-05
1.98226007e-05
1.97964478e-05
1.97703302e-05
1.97442479e-05
1.97182007e-05
1.96921887e-05
1.96662118e-05
1.96402699e-05
1.96143631e-05
1.95884911e-05
1.95626541e-05
1.95368519e-05
1.95110846e-05
1.94853520e-05
1.94596540e-05
1.94339908e-05
1.94083621e-05
1.93827681e-05
1.93572085e-05
1.93316834e-05
1.93061927e-05
1.92807364e-05
1.92553144e-05
1.92299267e-05
1.92045733e-05
1.91792540e-05
1.91539688e-05
1.91287177e-05
1.91035007e-05
1.90783176e-05
1.90531686e-05
1.90280534e-05
1.90029720e-05
1.89779245e-05
1.89529107e-05
1.89279306e-05
1.89029842e-05
1.88780714e-05
1.88531922e-05
1.88283465e-05
1.88035343e-05
1.87787555e-05
1.87540101e-05
1.87292981e-05
1.87046193e-05
1.86799738e-05
1.86553615e-05
1.86307824e-05
1.86062363e-05
1.85817234e-05
1.85572434e-05
1.85327964e-05
1.85083824e-05
1.84840012e-05
1.84596529e-05
1.84353373e-05
1.84110545e-05
1.83868044e-05
1.83625870e-05
1.83384022e-05
1.83142499e-05
1.82901302e-05
1.82660429e-05
1.82419881e-05
1.82179656e-05
1.81939755e-05
1.81700177e-05
1.81460921e-05
1.81221988e-05
1.80983376e-05
1.80745085e-05
1.80507115e-05
1.80269466e-05
1.80032136e-05
1.79795125e-05
1.79558434e-05
1.79322061e-05
1.79086006e-05
1.78850269e-05
1.78614849e-05
1.78379746e-05
1.78144959e-05
1.77910488e-05
1.77676333e-05
1.77442492e-05
1.77208966e-05
1.76975755e-05
1.76742857e-05
1.76510272e-05
1.76278000e-05
1.76046041e-05
1.75814394e-05
1.75583058e-05
1.75352033e-05
1.75121319e-05
1.74890916e-05
1.74660822e-05
1.74431037e-05
1.74201562e-05
1.73972395e-05
1.73743537e-05
1.73514986e-05
1.73286742e-05
1.73058805e-05
1.72831175e-05
1.72603851e-05
1.72376832e-05
1.72150119e-05
1.71923710e-05
1.71697606e-05
1.71471805e-05
1.71246308e-05
1.71021114e-05
1.70796223e-05
1.70571634e-05
1.70347347e-05
1.70123361e-05
1.69899677e-05
1.69676293e-05
1.69453209e-05
1.69230425e-05
1.69007940e-05
1.68785754e-05
1.68563867e-05
1.68342277e-05
1.68120986e-05
1.67899992e-05
1.67679294e-05
1.67458893e-05
1.67238789e-05
1.67018979e-05
1.66799466e-05
1.66580246e-05
1.66361322e-05
1.66142691e-05
1.65924354e-05
1.65706310e-05
1.65488560e-05
1.65271101e-05
1.65053935e-05
1.64837060e-05
1.64620476e-05
1.64404183e-05
1.64188181e-05
1.63972468e-05
1.63757045e-05
1.63541912e-05
1.63327067e-05
1.63112510e-05
1.62898242e-05
1.62684261e-05
1.62470568e-05
1.62257161e-05
1.62044041e-05
1.61831206e-05
1.61618658e-05
1.61406394e-05
1.61194416e-05
1.60982722e-05
1.60771312e-05
1.60560185e-05
1.60349343e-05
1.60138782e-05
1.59928505e-05
1.59718509e-05
1.59508796e-05
1.59299363e-05
1.59090212e-05
1.58881341e-05
1.58672751e-05
1.58464440e-05
1.58256409e-05
1.58048656e-05
1.57841183e-05
1.57633987e-05
1.57427070e-05
1.57220430e-05
1.57014067e-05
1.56807981e-05
1.56602171e-05
1.56396637e-05
1.56191379e-05
1.55986396e-05
1.55781688e-05
1.55577255e-05
1.55373095e-05
1.55169209e-05
1.54965597e-05
1.54762257e-05
1.54559190e-05
1.54356396e-05
1.54153873e-05
1.53951622e-05
1.53749641e-05
1.53547932e-05
1.53346493e-05
1.53145323e-05
1.52944424e-05
1.52743793e-05
1.52543432e-05
1.52343339e-05
1.52143514e-05
1.51943957e-05
1.51744667e-05
1.51545644e-05
1.51346888e-05
1.51148399e-05
1.50950175e-05
1.50752217e-05
1.50554524e-05
1.50357095e-05
1.50159932e-05
1.49963032e-05
1.49766396e-05
1.49570024e-05
1.49373914e-05
1.49178067e-05
1.48982483e-05
1.48787160e-05
1.48592099e-05
1.48397300e-05
1.48202761e-05
1.48008482e-05
1.47814464e-05
1.47620706e-05
1.47427207e-05
1.47233967e-05
1.47040985e-05
1.46848263e-05
1.46655798e-05
1.46463591e-05
1.46271641e-05
1.46079948e-05
1.45888512e-05
1.45697331e-05
1.45506407e-05
1.45315739e-05
1.45125325e-05
1.44935167e-05
1.44745263e-05
1.44555613e-05
1.44366217e-05
1.44177074e-05
1.43988184e-05
1.43799548e-05
1.43611163e-05
1.43423031e-05
1.43235150e-05
1.43047521e-05
1.42860143e-05
1.42673015e-05
1.42486138e-05
1.42299511e-05
1.42113133e-05
1.41927005e-05
1.41741126e-05
1.41555495e-05
1.41370113e-05
1.41184979e-05
1.41000092e-05
1.40815453e-05
1.40631060e-05
1.40446914e-05
1.40263014e-05
1.40079361e-05
1.39895952e-05
1.39712790e-05
1.39529872e-05
1.39347198e-05
1.39164769e-05
1.38982584e-05
1.38800642e-05
1.38618943e-05
1.38437488e-05
1.38256275e-05
1.38075304e-05
1.37894575e-05
1.37714088e-05
1.37533842e-05
1.37353837e-05
1.37174072e-05
1.36994548e-05
1.36815263e-05
1.36636219e-05
1.36457413e-05
1.36278847e-05
1.36100519e-05
1.35922429e-05
1.35744577e-05
1.35566963e-05
1.35389587e-05
1.35212447e-05
1.35035544e-05
1.34858877e-05
1.34682446e-05
1.34506251e-05
1.34330292e-05
1.34154567e-05
1.33979077e-05
1.33803822e-05
1.33628801e-05
1.33454013e-05
1.33279459e-05
1.33105138e-05
1.32931050e-05
1.32757194e-05
1.32583570e-05
1.32410179e-05
1.32237019e-05
1.32064090e-05
1.31891392e-05
1.31718924e-05
1.31546687e-05
1.31374680e-05
1.31202902e-05
1.31031354e-05
1.30860035e-05
1.30688944e-05
1.30518082e-05
1.30347448e-05
1.30177042e-05
1.30006863e-05
1.29836911e-05
1.29667187e-05
1.29497688e-05
1.29328416e-05
1.29159370e-05
1.28990549e-05
1.28821954e-05
1.28653584e-05
1.28485438e-05
1.28317517e-05
1.28149820e-05
1.27982346e-05
1.27815096e-05
1.27648069e-05
1.27481265e-05
1.27314684e-05
1.27148325e-05
1.26982187e-05
1.26816272e-05
1.26650577e-05
1.26485104e-05
1.26319851e-05
1.26154819e-05
1.25990007e-05
1.25825415e-05
1.25661042e-05
1.25496888e-05
1.25332954e-05
1.25169237e-05
1.25005740e-05
1.24842460e-05
1.24679398e-05
1.24516554e-05
1.24353926e-05
1.24191515e-05
1.24029321e-05
1.23867344e-05
1.23705582e-05
1.23544036e-05
1.23382705e-05
1.23221589e-05
1.23060688e-05
1.22900001e-05
1.22739529e-05
1.22579270e-05
1.22419226e-05
1.22259394e-05
1.22099775e-05
1.21940370e-05
1.21781176e-05
1.21622195e-05
1.21463426e-05
1.21304868e-05
1.21146521e-05
1.20988386e-05
1.20830461e-05
1.20672746e-05
1.20515242e-05
1.20357948e-05
1.20200863e-05
1.20043987e-05
1.19887320e-05
1.19730863e-05
1.19574613e-05
1.19418572e-05
1.19262738e-05
1.19107112e-05
1.18951693e-05
1.18796482e-05
1.18641477e-05
1.18486678e-05
1.18332086e-05
1.18177699e-05
1.18023518e-05
1.17869543e-05
1.17715772e-05
1.17562206e-05
1.17408845e-05
1.17255688e-05
1.17102735e-05
1.16949985e-05
1.16797439e-05
1.16645096e-05
1.16492955e-05
1.16341017e-05
1.16189282e-05
1.16037748e-05
1.15886416e-05
1.15735286e-05
1.15584357e-05
1.15433628e-05
1.15283100e-05
1.15132773e-05
1.14982646e-05
1.14832718e-05
1.14682990e-05
1.14533461e-05
1.14384131e-05
1.14235000e-05
1.14086067e-05
1.13937333e-05
1.13788796e-05
1.13640457e-05
1.13492315e-05
1.13344371e-05
1.13196623e-05
1.13049072e-05
1.12901717e-05
1.12754558e-05
1.12607595e-05
1.12460827e-05
1.12314254e-05
1.12167877e-05
1.12021694e-05
1.11875706e-05
1.11729911e-05
1.11584311e-05
1.11438904e-05
1.11293691e-05
1.11148671e-05
1.11003843e-05
1.10859208e-05
1.10714766e-05
1.10570515e-05
1.10426456e-05
1.10282589e-05
1.10138913e-05
1.09995428e-05
1.09852134e-05
1.09709031e-05
1.09566117e-05
1.09423394e-05
1.09280860e-05
1.09138516e-05
1.08996361e-05
1.08854394e-05
1.08712617e-05
1.08571028e-05
1.08429627e-05
1.08288414e-05
1.08147389e-05
1.08006551e-05
1.07865900e-05
1.07725436e-05
1.07585159e-05
1.07445068e-05
1.07305164e-05
1.07165445e-05
1.07025912e-05
1.06886564e-05
1.06747401e-05
1.06608424e-05
1.06469631e-05
1.06331022e-05
1.06192597e-05
1.06054356e-05
1.05916299e-05
1.05778425e-05
1.05640735e-05
1.05503227e-05
1.05365902e-05
1.05228759e-05
1.05091798e-05
1.04955020e-05
1.04818422e-05
1.04682007e-05
1.04545772e-05
1.04409718e-05
1.04273845e-05
1.04138153e-05
1.04002640e-05
1.03867308e-05
1.03732155e-05
1.03597181e-05
1.03462387e-05
1.03327772e-05
1.03193335e-05
1.03059077e-05
1.02924997e-05
1.02791095e-05
1.02657370e-05
1.02523824e-05
1.02390454e-05
1.02257261e-05
1.02124246e-05
1.01991406e-05
1.01858743e-05
1.01726257e-05
1.01593945e-05
1.01461810e-05
1.01329850e-05
1.01198065e-05
1.01066454e-05
1.00935019e-05
1.00803757e-05
1.00672670e-05
1.00541757e-05
1.00411018e-05
1.00280451e-05
1.00150059e-05
1.00019839e-05
9.98897914e-06
