-966.76917
-966.74646
-966.75451
-966.78606
-966.82508
-966.85625
-966.87333
-966.88251
-966.89142
-966.90302
-966.91652
-966.9295
-966.94005
-966.94878
-966.95722
-966.966
-966.97489
-966.98331
-966.99092
-966.99789
-967.0046
-967.01125
-967.01785
-967.0243
-967.03051
-967.03646
-967.04222
-967.04786
-967.05335
-967.05868
-967.06385
-967.06888
-967.0738
-967.07861
-967.08332
-967.08792
-967.09241
-967.09681
-967.10113
-967.10536
-967.10951
-967.11358
-967.11757
-967.1215
-967.12536
-967.12914
-967.13284
-967.13648
-967.14006
-967.14359
-967.14706
-967.15048
-967.15384
-967.15716
-967.16041
-967.16361
-967.16675
-967.16984
-967.17289
-967.17589
-967.17885
-967.18178
-967.18465
-967.18748
-967.19027
-967.19302
-967.19574
-967.1984
-967.20103
-967.20362
-967.20618
-967.20871
-967.2112
-967.21366
-967.21608
-967.21847
-967.22082
-967.22314
-967.22542
-967.22768
-967.22991
-967.23211
-967.23427
-967.23641
-967.23851
-967.24058
-967.24264
-967.24466
-967.24667
-967.24864
-967.2506
-967.25253
-967.25444
-967.25631
-967.25816
-967.25998
-967.26178
-967.26355
-967.26531
-967.26704
-967.26875
-967.27044
-967.27211
-967.27376
-967.27539
-967.27701
-967.27861
-967.2802
-967.28175
-967.28329
-967.28481
-967.2863
-967.28779
-967.28925
-967.2907
-967.29213
-967.29355
-967.29495
-967.29633
-967.29768
-967.29902
-967.30035
-967.30167
-967.30298
-967.30427
-967.30555
-967.30681
-967.30806
-967.3093
-967.31052
-967.31172
-967.31291
-967.31409
-967.31526
-967.31641
-967.31755
-967.31868
-967.31979
-967.3209
-967.32199
-967.32307
-967.32414
-967.3252
-967.32625
-967.32728
-967.3283
-967.32932
-967.33032
-967.33132
-967.3323
-967.33327
-967.33423
-967.33518
-967.33612
-967.33706
-967.33798
-967.33889
-967.3398
-967.34069
-967.34158
-967.34247
-967.34334
-967.3442
-967.34505
-967.34589
-967.34672
-967.34755
-967.34836
-967.34917
-967.34998
-967.35077
-967.35156
-967.35235
-967.35312
-967.35389
-967.35465
-967.35541
-967.35615
-967.35689
-967.35762
-967.35834
-967.35906
-967.35977
-967.36047
-967.36117
-967.36186
-967.36255
-967.36323
-967.36391
-967.36458
-967.36524
-967.36589
-967.36654
-967.36718
-967.36781
-967.36844
-967.36907
-967.36969
-967.37031
-967.37092
-967.37152
-967.37212
-967.37271
-967.37329
-967.37387
-967.37445
-967.37502
-967.37559
-967.37615
-967.37671
-967.37726
-967.37781
-967.37835
-967.37889
-967.37942
-967.37994
-967.38046
-967.38098
-967.3815
-967.38201
-967.38251
-967.38301
-967.38351
-967.38401
-967.3845
-967.38498
-967.38546
-967.38593
-967.3864
-967.38686
-967.38733
-967.38779
-967.38825
-967.38871
-967.38916
-967.3896
-967.39005
-967.39048
-967.39092
-967.39135
-967.39177
-967.3922
-967.39262
-967.39304
-967.39345
-967.39386
-967.39427
-967.39467
-967.39507
-967.39547
-967.39586
-967.39625
-967.39663
-967.39702
-967.3974
-967.39778
-967.39815
-967.39852
-967.39889
-967.39926
-967.39962
-967.39998
-967.40033
-967.40069
-967.40103
-967.40138
-967.40172
-967.40207
-967.4024
-967.40274
-967.40308
-967.40341
-967.40374
-967.40407
-967.40439
-967.40471
-967.40503
-967.40535
-967.40567
-967.40598
-967.40629
-967.4066
-967.4069
-967.40721
-967.40751
-967.40781
-967.4081
-967.40839
-967.40868
-967.40897
-967.40925
-967.40954
-967.40982
-967.41009
-967.41037
-967.41065
-967.41092
-967.41119
-967.41146
-967.41172
-967.41198
-967.41224
-967.4125
-967.41276
-967.41301
-967.41327
-967.41352
-967.41377
-967.41402
-967.41427
-967.41452
-967.41476
-967.415
-967.41524
-967.41548
-967.41572
-967.41595
-967.41618
-967.41642
-967.41665
-967.41687
-967.4171
-967.41732
-967.41755
-967.41777
-967.41799
-967.4182
-967.41842
-967.41864
-967.41885
-967.41907
-967.41928
-967.41949
-967.4197
-967.4199
-967.42011
-967.42031
-967.42051
-967.42071
-967.42091
-967.42111
-967.4213
-967.4215
-967.42169
-967.42189
-967.42208
-967.42226
-967.42245
-967.42264
-967.42282
-967.423
-967.42318
-967.42337
-967.42355
-967.42373
-967.4239
-967.42407
-967.42424
-967.42441
-967.42458
-967.42475
-967.42492
-967.42508
-967.42525
-967.42541
-967.42557
-967.42574
-967.4259
-967.42605
-967.42621
-967.42636
-967.42652
-967.42667
-967.42682
-967.42697
-967.42712
-967.42727
-967.42742
-967.42757
-967.42771
-967.42786
-967.428
-967.42814
-967.42828
-967.42842
-967.42856
-967.4287
-967.42884
-967.42898
-967.42911
-967.42925
-967.42938
-967.42952
-967.42965
-967.42978
-967.42991
-967.43004
-967.43017
-967.4303
-967.43042
-967.43055
-967.43067
-967.4308
-967.43092
-967.43104
-967.43116
-967.43128
-967.4314
-967.43152
-967.43164
-967.43176
-967.43188
-967.43199
-967.4321
-967.43222
-967.43233
-967.43244
-967.43255
-967.43266
-967.43277
-967.43288
-967.43299
-967.43309
-967.4332
-967.43331
-967.43341
-967.43352
-967.43362
-967.43372
-967.43382
-967.43392
-967.43402
-967.43412
-967.43422
-967.43432
-967.43442
-967.43452
-967.43461
-967.43471
-967.4348
-967.4349
-967.43499
-967.43509
-967.43518
-967.43527
-967.43536
-967.43545
-967.43554
-967.43563
-967.43572
-967.43581
-967.4359
-967.43598
-967.43607
-967.43615
-967.43624
-967.43632
-967.43641
-967.43649
-967.43657
-967.43665
-967.43674
-967.43682
-967.4369
-967.43698
-967.43705
-967.43713
-967.43721
-967.43728
-967.43736
-967.43744
-967.43751
-967.43759
-967.43766
-967.43774
-967.43781
-967.43788
-967.43795
-967.43802
-967.4381
-967.43817
-967.43824
-967.43831
-967.43838
-967.43845
-967.43851
-967.43858
-967.43865
-967.43871
-967.43878
-967.43885
-967.43891
-967.43898
-967.43904
-967.43911
-967.43917
-967.43923
-967.43929
-967.43936
-967.43942
-967.43948
-967.43954
-967.4396
-967.43966
-967.43972
-967.43978
-967.43984
-967.4399
-967.43996
-967.44002
-967.44007
-967.44013
-967.44019
-967.44024
-967.4403
-967.44035
-967.44041
-967.44046
-967.44051
-967.44057
-967.44062
-967.44067
-967.44073
-967.44078
-967.44083
-967.44088
-967.44093
-967.44098
-967.44103
-967.44108
-967.44113
-967.44118
-967.44123
-967.44127
-967.44132
-967.44137
-967.44142
-967.44146
-967.44151
-967.44156
-967.4416
-967.44165
-967.44169
-967.44174
-967.44178
-967.44182
-967.44187
-967.44191
-967.44195
-967.442
-967.44204
-967.44208
-967.44212
-967.44217
-967.44221
-967.44225
-967.44229
-967.44233
-967.44237
-967.44241
-967.44245
-967.44249
-967.44253
-967.44257
-967.44261
-967.44265
-967.44269
-967.44272
-967.44276
-967.4428
-967.44284
-967.44287
-967.44291
-967.44295
-967.44298
-967.44302
-967.44306
-967.44309
-967.44312
-967.44316
-967.44319
-967.44323
-967.44327
-967.4433
-967.44333
-967.44337
-967.4434
-967.44343
-967.44347
-967.4435
-967.44353
-967.44357
-967.4436
-967.44363
-967.44366
-967.44369
-967.44373
-967.44376
-967.44379
-967.44382
-967.44385
-967.44388
-967.44391
-967.44394
-967.44397
-967.444
-967.44403
-967.44406
-967.44409
-967.44412
-967.44415
-967.44418
-967.44421
-967.44424
-967.44427
-967.4443
-967.44432
-967.44435
-967.44438
-967.44441
-967.44444
-967.44446
-967.44449
-967.44452
-967.44455
-967.44457
-967.4446
-967.44462
-967.44465
-967.44468
-967.4447
-967.44473
-967.44476
-967.44478
-967.44481
-967.44483
-967.44486
-967.44488
-967.44491
-967.44493
-967.44496
-967.44498
-967.445
-967.44503
-967.44505
-967.44507
-967.4451
-967.44512
-967.44514
-967.44517
-967.44519
-967.44521
-967.44524
-967.44526
-967.44528
-967.4453
-967.44533
-967.44535
-967.44537
-967.44539
-967.44541
-967.44544
-967.44546
-967.44548
-967.4455
-967.44552
-967.44554
-967.44556
-967.44558
-967.4456
-967.44562
-967.44564
-967.44566
-967.44568
-967.4457
-967.44572
-967.44574
-967.44576
-967.44578
-967.4458
-967.44582
-967.44584
-967.44586
-967.44588
-967.4459
-967.44592
-967.44593
-967.44595
-967.44597
-967.44599
-967.44601
-967.44603
-967.44604
-967.44606
-967.44608
-967.4461
-967.44612
-967.44613
-967.44615
-967.44617
-967.44618
-967.4462
-967.44622
-967.44623
-967.44625
-967.44627
-967.44628
-967.4463
-967.44632
-967.44633
-967.44635
-967.44636
-967.44638
-967.4464
-967.44641
-967.44643
-967.44644
-967.44646
-967.44647
-967.44649
-967.4465
-967.44652
-967.44653
-967.44655
-967.44656
-967.44658
-967.44659
-967.44661
-967.44662
-967.44664
-967.44665
-967.44667
-967.44668
-967.44669
-967.44671
-967.44672
-967.44674
-967.44675
-967.44676
-967.44678
-967.44679
-967.44681
-967.44682
-967.44683
-967.44685
-967.44686
-967.44687
-967.44689
-967.4469
-967.44691
-967.44693
-967.44694
-967.44695
-967.44696
-967.44698
-967.44699
-967.447
-967.44702
-967.44703
-967.44704
-967.44705
-967.44706
-967.44708
-967.44709
-967.4471
-967.44711
-967.44712
-967.44713
-967.44715
-967.44716
-967.44717
-967.44718
-967.44719
-967.44721
-967.44722
-967.44723
-967.44724
-967.44725
-967.44726
-967.44727
-967.44728
-967.44729
-967.44731
-967.44732
-967.44733
-967.44734
-967.44735
-967.44736
-967.44737
-967.44738
-967.44739
-967.4474
-967.44741
-967.44742
-967.44743
-967.44744
-967.44745
-967.44746
-967.44747
-967.44748
-967.44749
-967.4475
-967.44751
-967.44752
-967.44753
-967.44754
-967.44755
-967.44756
-967.44757
-967.44758
-967.44759
-967.4476
-967.44761
-967.44761
-967.44762
-967.44763
-967.44764
-967.44765
-967.44766
-967.44767
-967.44768
-967.44769
-967.44769
-967.4477
-967.44771
-967.44772
-967.44773
-967.44774
-967.44775
-967.44776
-967.44776
-967.44777
-967.44778
-967.44779
-967.4478
-967.44781
-967.44781
-967.44782
-967.44783
-967.44784
-967.44785
-967.44785
-967.44786
-967.44787
-967.44788
-967.44789
-967.44789
-967.4479
-967.44791
-967.44792
-967.44792
-967.44793
-967.44794
-967.44795
-967.44796
-967.44796
-967.44797
-967.44798
-967.44798
-967.44799
-967.448
-967.44801
-967.44801
-967.44802
-967.44803
-967.44804
-967.44804
-967.44805
-967.44806
-967.44806
-967.44807
-967.44808
-967.44808
-967.44809
-967.4481
-967.4481
-967.44811
-967.44812
-967.44813
-967.44813
-967.44814
-967.44815
-967.44815
-967.44816
-967.44817
-967.44817
-967.44818
-967.44819
-967.44819
-967.4482
-967.4482
-967.44821
-967.44822
-967.44822
-967.44823
-967.44824
-967.44824
-967.44825
-967.44826
-967.44826
-967.44827
-967.44827
-967.44828
-967.44829
-967.44829
-967.4483
-967.4483
-967.44831
-967.44832
-967.44832
-967.44833
-967.44833
-967.44834
-967.44834
-967.44835
-967.44836
-967.44836
-967.44837
-967.44837
-967.44838
-967.44838
-967.44839
-967.44839
-967.4484
-967.44841
-967.44841
-967.44842
-967.44842
-967.44843
-967.44843
-967.44844
-967.44844
-967.44845
-967.44845
-967.44846
-967.44846
-967.44847
-967.44847
-967.44848
-967.44848
-967.44849
-967.44849
-967.4485
-967.4485
-967.44851
-967.44851
-967.44852
-967.44852
-967.44853
-967.44853
-967.44854
-967.44854
-967.44855
-967.44855
-967.44856
-967.44856
-967.44857
-967.44857
-967.44858
-967.44858
-967.44858
-967.44859
-967.44859
-967.4486
-967.4486
-967.44861
-967.44861
-967.44862
-967.44862
-967.44862
-967.44863
-967.44863
-967.44864
-967.44864
-967.44865
-967.44865
-967.44865
-967.44866
-967.44866
-967.44867
-967.44867
-967.44868
-967.44868
-967.44868
-967.44869
-967.44869
-967.4487
-967.4487
-967.4487
-967.44871
-967.44871
-967.44872
-967.44872
-967.44872
-967.44873
-967.44873
-967.44874
-967.44874
-967.44874
-967.44875
-967.44875
-967.44876
-967.44876
-967.44876
-967.44877
-967.44877
-967.44877
-967.44878
-967.44878
-967.44879
-967.44879
-967.44879
-967.4488
-967.4488
-967.4488
-967.44881
-967.44881
-967.44882
-967.44882
-967.44882
-967.44883
-967.44883
-967.44883
-967.44884
-967.44884
-967.44884
-967.44885
-967.44885
-967.44885
-967.44886
-967.44886
-967.44886
-967.44887
-967.44887
-967.44887
-967.44888
-967.44888
-967.44888
-967.44889
-967.44889
-967.44889
-967.4489
-967.4489
-967.4489
-967.44891
-967.44891
-967.44891
-967.44892
-967.44892
-967.44892
-967.44893
-967.44893
-967.44893
-967.44894
-967.44894
-967.44894
-967.44894
-967.44895
-967.44895
-967.44895
-967.44896
-967.44896
-967.44896
-967.44897
-967.44897
-967.44897
-967.44897
-967.44898
-967.44898
-967.44898
-967.44899
-967.44899
-967.44899
-967.44899
-967.449
-967.449
-967.449
-967.44901
-967.44901
-967.44901
-967.44901
-967.44902
-967.44902
-967.44902
-967.44903
-967.44903
-967.44903
-967.44903
-967.44904
-967.44904
-967.44904
-967.44904
-967.44905
-967.44905
-967.44905
-967.44905
-967.44906
-967.44906
-967.44906
-967.44906
-967.44907
-967.44907
-967.44907
-967.44907
-967.44908
-967.44908
-967.44908
-967.44908
-967.44909
-967.44909
-967.44909
-967.44909
-967.4491
-967.4491
-967.4491
-967.4491
-967.44911
-967.44911
-967.44911
-967.44911
-967.44912
-967.44912
-967.44912
-967.44912
-967.44912
-967.44913
-967.44913
-967.44913
-967.44913
-967.44914
-967.44914
-967.44914
-967.44914
-967.44914
-967.44915
-967.44915
-967.44915
-967.44915
-967.44916
-967.44916
-967.44916
-967.44916
-967.44916
-967.44917
-967.44917
-967.44917
-967.44917
-967.44918
-967.44918
-967.44918
-967.44918
-967.44918
-967.44919
-967.44919
-967.44919
-967.44919
-967.44919
-967.4492
-967.4492
-967.4492
-967.4492
-967.4492
-967.44921
-967.44921
-967.44921
-967.44921
-967.44921
-967.44922
-967.44922
-967.44922
-967.44922
-967.44922
-967.44923
-967.44923
-967.44923
-967.44923
-967.44923
-967.44923
-967.44924
-967.44924
-967.44924
-967.44924
-967.44924
-967.44925
-967.44925
-967.44925
-967.44925
-967.44925
-967.44925
-967.44926
-967.44926
-967.44926
-967.44926
-967.44926
-967.44927
-967.44927
-967.44927
-967.44927
-967.44927
-967.44927
-967.44928
-967.44928
-967.44928
-967.44928
-967.44928
-967.44928
-967.44929
-967.44929
-967.44929
-967.44929
-967.44929
-967.44929
-967.4493
-967.4493
-967.4493
-967.4493
-967.4493
-967.4493
-967.44931
-967.44931
-967.44931
-967.44931
-967.44931
-967.44931
-967.44931
-967.44932
-967.44932
-967.44932
-967.44932
-967.44932
-967.44932
-967.44933
-967.44933
-967.44933
-967.44933
-967.44933
-967.44933
-967.44934
-967.44934
-967.44934
-967.44934
-967.44934
-967.44934
-967.44934
-967.44935
-967.44935
-967.44935
-967.44935
-967.44935
-967.44935
-967.44935
-967.44936
-967.44936
-967.44936
-967.44936
-967.44936
-967.44936
-967.44936
-967.44937
-967.44937
-967.44937
-967.44937
-967.44937
-967.44937
-967.44937
-967.44938
-967.44938
-967.44938
-967.44938
-967.44938
-967.44938
-967.44938
-967.44938
-967.44939
-967.44939
-967.44939
-967.44939
-967.44939
-967.44939
-967.44939
-967.44939
-967.4494
-967.4494
-967.4494
-967.4494
-967.4494
-967.4494
-967.4494
-967.44941
-967.44941
-967.44941
-967.44941
-967.44941
-967.44941
-967.44941
-967.44941
-967.44942
-967.44942
-967.44942
-967.44942
-967.44942
-967.44942
-967.44942
-967.44942
-967.44943
-967.44943
-967.44943
-967.44943
-967.44943
-967.44943
-967.44943
-967.44943
-967.44943
-967.44944
-967.44944
-967.44944
-967.44944
-967.44944
-967.44944
-967.44944
-967.44944
-967.44945
-967.44945
-967.44945
-967.44945
-967.44945
-967.44945
-967.44945
-967.44945
-967.44945
-967.44946
-967.44946
-967.44946
-967.44946
-967.44946
-967.44946
-967.44946
-967.44946
-967.44946
-967.44947
-967.44947
-967.44947
-967.44947
-967.44947
-967.44947
-967.44947
-967.44947
-967.44947
-967.44947
-967.44948
-967.44948
-967.44948
-967.44948
-967.44948
-967.44948
-967.44948
-967.44948
-967.44948
-967.44948
-967.44949
-967.44949
-967.44949
-967.44949
-967.44949
-967.44949
-967.44949
-967.44949
-967.44949
-967.44949
-967.4495
-967.4495
-967.4495
-967.4495
-967.4495
-967.4495
-967.4495
-967.4495
-967.4495
-967.4495
-967.4495
-967.44951
-967.44951
-967.44951
-967.44951
-967.44951
-967.44951
-967.44951
-967.44951
-967.44951
-967.44951
-967.44951
-967.44952
-967.44952
-967.44952
-967.44952
-967.44952
-967.44952
-967.44952
-967.44952
-967.44952
-967.44952
-967.44952
-967.44953
-967.44953
-967.44953
-967.44953
-967.44953
-967.44953
-967.44953
-967.44953
-967.44953
-967.44953
-967.44953
-967.44953
-967.44954
-967.44954
-967.44954
-967.44954
-967.44954
-967.44954
-967.44954
-967.44954
-967.44954
-967.44954
-967.44954
-967.44954
-967.44954
-967.44954
-967.44955
-967.44955
-967.44955
-967.44955
-967.44955
-967.44955
-967.44955
-967.44955
-967.44955
-967.44955
-967.44955
-967.44955
-967.44955
-967.44956
-967.44956
-967.44956
-967.44956
-967.44956
-967.44956
-967.44956
-967.44956
-967.44956
-967.44956
-967.44956
-967.44956
-967.44956
-967.44956
-967.44957
-967.44957
-967.44957
-967.44957
-967.44957
-967.44957
-967.44957
-967.44957
-967.44957
-967.44957
-967.44957
-967.44957
-967.44957
-967.44957
-967.44957
-967.44958
-967.44958
-967.44958
-967.44958
-967.44958
-967.44958
-967.44958
-967.44958
-967.44958
-967.44958
-967.44958
-967.44958
-967.44958
-967.44958
-967.44958
-967.44959
-967.44959
-967.44959
-967.44959
-967.44959
-967.44959
-967.44959
-967.44959
-967.44959
-967.44959
-967.44959
-967.44959
-967.44959
-967.44959
-967.44959
-967.44959
-967.4496
-967.4496
-967.4496
-967.4496
-967.4496
-967.4496
-967.4496
-967.4496
-967.4496
-967.4496
-967.4496
-967.4496
-967.4496
-967.4496
-967.4496
-967.4496
-967.4496
-967.4496
-967.44961
-967.44961
-967.44961
-967.44961
-967.44961
-967.44961
-967.44961
-967.44961
-967.44961
-967.44961
-967.44961
-967.44961
-967.44961
-967.44961
-967.44961
-967.44961
-967.44961
-967.44961
-967.44961
-967.44961
-967.44962
-967.44962
-967.44962
-967.44962
-967.44962
-967.44962
-967.44962
-967.44962
-967.44962
-967.44962
-967.44962
-967.44962
-967.44962
-967.44962
-967.44962
-967.44962
-967.44962
-967.44962
-967.44962
-967.44962
-967.44963
-967.44963
-967.44963
-967.44963
-967.44963
-967.44963
-967.44963
-967.44963
-967.44963
-967.44963
-967.44963
-967.44963
-967.44963
-967.44963
-967.44963
-967.44963
-967.44963
-967.44963
-967.44963
-967.44963
-967.44963
-967.44964
-967.44964
-967.44964
-967.44964
-967.44964
-967.44964
-967.44964
-967.44964
-967.44964
-967.44964
-967.44964
-967.44964
-967.44964
-967.44964
-967.44964
-967.44964
-967.44964
-967.44964
-967.44964
-967.44964
-967.44964
-967.44964
-967.44964
-967.44964
-967.44964
-967.44964
-967.44965
-967.44965
-967.44965
-967.44965
-967.44965
-967.44965
-967.44965
-967.44965
-967.44965
-967.44965
-967.44965
-967.44965
-967.44965
-967.44965
-967.44965
-967.44965
-967.44965
-967.44965
-967.44965
-967.44965
-967.44965
-967.44965
-967.44965
-967.44965
-967.44965
-967.44965
-967.44966
-967.44966
-967.44966
-967.44966
-967.44966
-967.44966
-967.44966
-967.44966
-967.44966
-967.44966
-967.44966
-967.44966
-967.44966
-967.44966
-967.44966
-967.44966
-967.44966
-967.44966
-967.44966
-967.44966
-967.44966
-967.44966
-967.44966
-967.44966
-967.44966
-967.44966
-967.44966
-967.44966
-967.44966
-967.44966
-967.44966
-967.44967
-967.44967
-967.44967
-967.44967
-967.44967
-967.44967
-967.44967
-967.44967
-967.44967
-967.44967
-967.44967
-967.44967
-967.44967
-967.44967
-967.44967
-967.44967
-967.44967
-967.44967
-967.44967
-967.44967
-967.44967
-967.44967
-967.44967
-967.44967
-967.44967
-967.44967
-967.44967
-967.44967
-967.44967
-967.44967
-967.44967
-967.44967
-967.44967
-967.44967
-967.44967
-967.44968
-967.44968
-967.44968
-967.44968
-967.44968
-967.44968
-967.44968
-967.44968
-967.44968
-967.44968
-967.44968
-967.44968
-967.44968
-967.44968
-967.44968
-967.44968
-967.44968
-967.44968
-967.44968
-967.44968
-967.44968
-967.44968
-967.44968
-967.44968
-967.44968
-967.44968
-967.44968
-967.44968
-967.44968
-967.44968
-967.44968
-967.44968
-967.44968
-967.44968
-967.44968
-967.44968
-967.44968
-967.44968
-967.44968
-967.44968
-967.44968
-967.44969
-967.44969
-967.44969
-967.44969
-967.44969
-967.44969
-967.44969
-967.44969
-967.44969
-967.44969
-967.44969
-967.44969
-967.44969
-967.44969
-967.44969
-967.44969
-967.44969
-967.44969
-967.44969
-967.44969
-967.44969
-967.44969
-967.44969
-967.44969
-967.44969
-967.44969
-967.44969
-967.44969
-967.44969
-967.44969
-967.44969
-967.44969
-967.44969
-967.44969
-967.44969
-967.44969
-967.44969
-967.44969
-967.44969
-967.44969
-967.44969
-967.44969
-967.44969
-967.44969
-967.44969
-967.44969
-967.44969
-967.4497
-967.4497
-967.4497
-967.4497
-967.4497
-967.4497
-967.4497
-967.4497
-967.4497
-967.4497
-967.4497
-967.4497
-967.4497
-967.4497
-967.4497
-967.4497
-967.4497
-967.4497
-967.4497
-967.4497
-967.4497
-967.4497
-967.4497
-967.4497
-967.4497
-967.4497
-967.4497
-967.4497
-967.4497
-967.4497
-967.4497
-967.4497
-967.4497
-967.4497
-967.4497
-967.4497
-967.4497
-967.4497
-967.4497
-967.4497
-967.4497
-967.4497
-967.4497
-967.4497
-967.4497
-967.4497
-967.4497
-967.4497
-967.4497
-967.4497
-967.4497
-967.4497
-967.4497
-967.4497
-967.4497
-967.4497
-967.4497
-967.4497
-967.4497
-967.44971
-967.44971
-967.44971
-967.44971
-967.44971
-967.44971
-967.44971
-967.44971
-967.44971
-967.44971
-967.44971
-967.44971
-967.44971
-967.44971
-967.44971
-967.44971
-967.44971
-967.44971
-967.44971
-967.44971
-967.44971
-967.44971
-967.44971
-967.44971
-967.44971
-967.44971
-967.44971
-967.44971
-967.44971
-967.44971
-967.44971
-967.44971
-967.44971
-967.44971
-967.44971
-967.44971
-967.44971
-967.44971
-967.44971
-967.44971
-967.44971
-967.44971
-967.44971
-967.44971
-967.44971
-967.44971
-967.44971
-967.44971
-967.44971
-967.44971
-967.44971
-967.44971
-967.44971
-967.44971
-967.44971
-967.44971
-967.44971
-967.44971
-967.44971
-967.44971
-967.44971
-967.44971
-967.44971
-967.44971
-967.44971
-967.44971
-967.44971
-967.44971
-967.44971
-967.44971
-967.44971
-967.44971
-967.44971
-967.44971
-967.44971
-967.44971
-967.44972
-967.44972
-967.44972
-967.44972
-967.44972
-967.44972
-967.44972
-967.44972
-967.44972
-967.44972
-967.44972
-967.44972
-967.44972
-967.44972
-967.44972
-967.44972
-967.44972
-967.44972
-967.44972
-967.44972
-967.44972
-967.44972
-967.44972
-967.44972
-967.44972
-967.44972
-967.44972
-967.44972
-967.44972
-967.44972
-967.44972
-967.44972
-967.44972
-967.44972
-967.44972
-967.44972
-967.44972
-967.44972
-967.44972
-967.44972
-967.44972
-967.44972
-967.44972
-967.44972
-967.44972
-967.44972
-967.44972
-967.44972
-967.44972
-967.44972
-967.44972
-967.44972
-967.44972
-967.44972
-967.44972
-967.44972
-967.44972
-967.44972
-967.44972
-967.44972
-967.44972
-967.44972
-967.44972
-967.44972
-967.44972
-967.44972
-967.44972
-967.44972
-967.44972
-967.44972
-967.44972
-967.44972
-967.44972
-967.44972
-967.44972
-967.44972
-967.44972
-967.44972
-967.44972
-967.44972
-967.44972
-967.44972
-967.44972
-967.44972
-967.44972
-967.44972
-967.44972
-967.44972
-967.44972
-967.44972
-967.44972
-967.44972
-967.44972
-967.44972
-967.44972
-967.44972
-967.44972
-967.44972
-967.44972
-967.44972
-967.44972
-967.44972
-967.44973
-967.44973
-967.44973
-967.44973
-967.44973
-967.44973
-967.44973
-967.44973
-967.44973
-967.44973
-967.44973
-967.44973
-967.44973
-967.44973
-967.44973
-967.44973
-967.44973
-967.44973
-967.44973
-967.44973
-967.44973
-967.44973
-967.44973
-967.44973
-967.44973
-967.44973
-967.44973
-967.44973
-967.44973
-967.44973
-967.44973
-967.44973
-967.44973
-967.44973
-967.44973
-967.44973
-967.44973
-967.44973
-967.44973
-967.44973
-967.44973
-967.44973
-967.44973
-967.44973
-967.44973
-967.44973
-967.44973
-967.44973
-967.44973
-967.44973
-967.44973
-967.44973
-967.44973
-967.44973
-967.44973
-967.44973
-967.44973
-967.44973
-967.44973
-967.44973
-967.44973
-967.44973
-967.44973
-967.44973
-967.44973
-967.44973
-967.44973
-967.44973
-967.44973
-967.44973
-967.44973
-967.44973
-967.44973
-967.44973
-967.44973
-967.44973
-967.44973
-967.44973
-967.44973
-967.44973
-967.44973
-967.44973
-967.44973
-967.44973
-967.44973
-967.44973
-967.44973
-967.44973
-967.44973
-967.44973
-967.44973
-967.44973
-967.44973
-967.44973
-967.44973
-967.44973
-967.44973
-967.44973
-967.44973
-967.44973
-967.44973
-967.44973
-967.44973
-967.44973
-967.44973
-967.44973
-967.44973
-967.44973
-967.44973
-967.44973
-967.44973
-967.44973
-967.44973
-967.44973
-967.44973
-967.44973
-967.44973
-967.44973
-967.44973
-967.44973
-967.44973
-967.44973
-967.44973
-967.44973
-967.44973
-967.44973
-967.44973
-967.44973
-967.44973
-967.44973
-967.44973
-967.44973
-967.44973
-967.44973
-967.44973
-967.44973
-967.44973
-967.44973
-967.44973
-967.44973
-967.44973
-967.44973
-967.44973
-967.44973
-967.44973
-967.44973
-967.44973
-967.44973
-967.44974
-967.44974
-967.44974
-967.44974
-967.44974
-967.44974
-967.44974
-967.44974
-967.44974
-967.44974
-967.44974
-967.44974
-967.44974
-967.44974
-967.44974
-967.44974
-967.44974
-967.44974
-967.44974
-967.44974
-967.44974
-967.44974
-967.44974
-967.44974
-967.44974
-967.44974
-967.44974
-967.44974
-967.44974
-967.44974
-967.44974
-967.44974
-967.44974
-967.44974
-967.44974
-967.44974
-967.44974
-967.44974
-967.44974
-967.44974
-967.44974
-967.44974
-967.44974
-967.44974
-967.44974
-967.44974
-967.44974
-967.44974
-967.44974
-967.44974
-967.44974
-967.44974
-967.44974
-967.44974
-967.44974
-967.44974
-967.44974
-967.44974
-967.44974
-967.44974
-967.44974
-967.44974
-967.44974
-967.44974
-967.44974
-967.44974
-967.44974
-967.44974
-967.44974
-967.44974
-967.44974
-967.44974
-967.44974
-967.44974
-967.44974
-967.44974
-967.44974
-967.44974
-967.44974
-967.44974
-967.44974
-967.44974
-967.44974
-967.44974
-967.44974
-967.44974
-967.44974
-967.44974
-967.44974
-967.44974
-967.44974
-967.44974
-967.44974
-967.44974
-967.44974
-967.44974
-967.44974
-967.44974
-967.44974
-967.44974
-967.44974
-967.44974
-967.44974
-967.44974
-967.44974
-967.44974
-967.44974
-967.44974
-967.44974
-967.44974
-967.44974
-967.44974
-967.44974
-967.44974
-967.44974
-967.44974
-967.44974
-967.44974
-967.44974
-967.44974
-967.44974
-967.44974
-967.44974
-967.44974
-967.44974
-967.44974
-967.44974
-967.44974
-967.44974
-967.44974
-967.44974
-967.44974
-967.44974
-967.44974
-967.44974
-967.44974
-967.44974
-967.44974
-967.44974
-967.44974
-967.44974
-967.44974
-967.44974
-967.44974
-967.44974
-967.44974
-967.44974
-967.44974
-967.44974
-967.44974
-967.44974
-967.44974
-967.44974
-967.44974
-967.44974
-967.44974
-967.44974
-967.44974
-967.44974
-967.44974
-967.44974
-967.44974
-967.44974
-967.44974
-967.44974
-967.44974
-967.44974
-967.44974
-967.44974
-967.44974
-967.44974
-967.44974
-967.44974
-967.44974
-967.44974
-967.44974
-967.44974
-967.44974
-967.44974
-967.44974
-967.44974
-967.44974
-967.44974
-967.44974
-967.44974
-967.44974
-967.44974
-967.44974
-967.44974
-967.44974
-967.44974
-967.44974
-967.44974
-967.44974
-967.44974
-967.44974
-967.44974
-967.44974
-967.44974
-967.44974
-967.44974
-967.44974
-967.44974
-967.44974
-967.44974
-967.44974
-967.44974
-967.44974
-967.44974
-967.44974
-967.44974
-967.44974
-967.44974
-967.44974
-967.44974
-967.44974
-967.44974
-967.44974
-967.44974
-967.44974
-967.44974
-967.44974
-967.44974
-967.44974
-967.44974
-967.44974
-967.44974
-967.44974
-967.44974
-967.44974
-967.44974
-967.44974
-967.44974
-967.44974
-967.44974
-967.44974
-967.44974
-967.44974
-967.44974
-967.44974
-967.44974
-967.44974
-967.44974
-967.44974
-967.44974
-967.44974
-967.44974
-967.44974
-967.44974
-967.44974
-967.44974
-967.44974
-967.44974
-967.44974
-967.44974
-967.44974
-967.44974
-967.44974
-967.44974
-967.44974
-967.44974
-967.44974
-967.44974
-967.44974
-967.44974
-967.44974
-967.44975
-967.44975
-967.44975
-967.44975
-967.44975
-967.44975
-967.44975
-967.44975
-967.44975
-967.44975
-967.44975
-967.44975
-967.44975
-967.44975
-967.44975
-967.44975
-967.44975
-967.44975
-967.44975
-967.44975
-967.44975
-967.44975
-967.44975
-967.44975
-967.44975
-967.44975
-967.44975
-967.44975
-967.44975
-967.44975
-967.44975
-967.44975
-967.44975
-967.44975
-967.44975
-967.44975
-967.44975
-967.44975
-967.44975
-967.44975
-967.44975
-967.44975
-967.44975
-967.44975
-967.44975
-967.44975
-967.44975
-967.44975
-967.44975
-967.44975
-967.44975
-967.44975
-967.44975
-967.44975
-967.44975
-967.44975
-967.44975
-967.44975
-967.44975
-967.44975
-967.44975
-967.44975
-967.44975
-967.44975
-967.44975
-967.44975
-967.44975
-967.44975
-967.44975
-967.44975
-967.44975
-967.44975
-967.44975
-967.44975
-967.44975
-967.44975
-967.44975
-967.44975
-967.44975
-967.44975
-967.44975
-967.44975
-967.44975
-967.44975
-967.44975
-967.44975
-967.44975
-967.44975
-967.44975
-967.44975
-967.44975
-967.44975
-967.44975
-967.44975
-967.44975
-967.44975
-967.44975
-967.44975
-967.44975
-967.44975
-967.44975
-967.44975
-967.44975
-967.44975
-967.44975
-967.44975
-967.44975
-967.44975
-967.44975
-967.44975
-967.44975
-967.44975
-967.44975
-967.44975
-967.44975
-967.44975
-967.44975
-967.44975
-967.44975
-967.44975
-967.44975
-967.44975
-967.44975
-967.44975
-967.44975
-967.44975
-967.44975
-967.44975
-967.44975
-967.44975
-967.44975
-967.44975
-967.44975
-967.44975
-967.44975
-967.44975
-967.44975
-967.44975
-967.44975
-967.44975
-967.44975
-967.44975
-967.44975
-967.44975
-967.44975
-967.44975
-967.44975
-967.44975
-967.44975
-967.44975
-967.44975
-967.44975
-967.44975
-967.44975
-967.44975
-967.44975
-967.44975
-967.44975
-967.44975
-967.44975
-967.44975
-967.44975
-967.44975
-967.44975
-967.44975
-967.44975
-967.44975
-967.44975
-967.44975
-967.44975
-967.44975
-967.44975
-967.44975
-967.44975
-967.44975
-967.44975
-967.44975
-967.44975
-967.44975
-967.44975
-967.44975
-967.44975
-967.44975
-967.44975
-967.44975
-967.44975
-967.44975
-967.44975
-967.44975
-967.44975
-967.44975
-967.44975
-967.44975
-967.44975
-967.44975
-967.44975
-967.44975
-967.44975
-967.44975
-967.44975
-967.44975
-967.44975
-967.44975
-967.44975
-967.44975
-967.44975
-967.44975
-967.44975
-967.44975
-967.44975
-967.44975
-967.44975
-967.44975
-967.44975
-967.44975
-967.44975
-967.44975
-967.44975
-967.44975
-967.44975
-967.44975
-967.44975
-967.44975
-967.44975
-967.44975
-967.44975
-967.44975
-967.44975
-967.44975
-967.44975
-967.44975
-967.44975
-967.44975
-967.44975
-967.44975
-967.44975
-967.44975
-967.44975
-967.44975
-967.44975
-967.44975
-967.44975
-967.44975
-967.44975
-967.44975
-967.44975
-967.44975
-967.44975
-967.44975
-967.44975
-967.44975
-967.44975
-967.44975
-967.44975
-967.44975
-967.44975
-967.44975
-967.44975
-967.44975
-967.44975
-967.44975
-967.44975
-967.44975
-967.44975
-967.44975
-967.44975
-967.44975
-967.44975
-967.44975
-967.44975
-967.44975
-967.44975
-967.44975
-967.44975
-967.44975
-967.44975
-967.44975
-967.44975
-967.44975
-967.44975
-967.44975
-967.44975
-967.44975
-967.44975
-967.44975
-967.44975
-967.44975
-967.44975
-967.44975
-967.44975
-967.44975
-967.44975
-967.44975
-967.44975
-967.44975
-967.44975
-967.44975
-967.44975
-967.44975
-967.44975
-967.44975
-967.44975
-967.44975
-967.44975
-967.44975
-967.44975
-967.44975
-967.44975
-967.44975
-967.44975
-967.44975
-967.44975
-967.44975
-967.44975
-967.44975
-967.44975
-967.44975
-967.44975
-967.44975
-967.44975
-967.44975
-967.44975
-967.44975
-967.44975
-967.44975
-967.44975
-967.44975
-967.44975
-967.44975
-967.44975
-967.44975
-967.44975
-967.44975
-967.44975
-967.44975
-967.44975
-967.44975
-967.44975
-967.44975
-967.44975
-967.44975
-967.44975
-967.44975
-967.44975
-967.44975
-967.44975
-967.44975
-967.44975
-967.44975
-967.44975
-967.44975
-967.44975
-967.44975
-967.44975
-967.44975
-967.44975
-967.44975
-967.44975
-967.44975
-967.44975
-967.44975
-967.44975
-967.44975
-967.44975
-967.44975
-967.44975
-967.44975
-967.44975
-967.44975
-967.44975
-967.44975
-967.44975
-967.44975
-967.44975
-967.44975
-967.44975
-967.44975
-967.44975
-967.44975
-967.44975
-967.44975
-967.44975
-967.44975
-967.44975
-967.44975
-967.44975
-967.44975
-967.44975
-967.44975
-967.44975
-967.44975
-967.44975
-967.44975
-967.44975
-967.44975
-967.44975
-967.44975
-967.44975
-967.44975
-967.44975
-967.44975
-967.44975
-967.44975
-967.44975
-967.44975
-967.44975
-967.44975
-967.44975
-967.44975
-967.44975
-967.44975
-967.44975
-967.44975
-967.44975
-967.44975
-967.44975
-967.44975
-967.44975
-967.44975
-967.44975
-967.44975
-967.44975
-967.44975
-967.44975
-967.44975
-967.44975
-967.44975
-967.44975
-967.44975
-967.44975
-967.44975
-967.44975
-967.44975
-967.44975
-967.44975
-967.44975
-967.44975
-967.44975
-967.44975
-967.44975
-967.44975
-967.44975
-967.44975
-967.44975
-967.44975
-967.44975
-967.44975
-967.44975
-967.44975
-967.44975
-967.44975
-967.44975
-967.44975
-967.44975
-967.44975
-967.44975
-967.44975
-967.44975
-967.44975
-967.44975
-967.44975
-967.44975
-967.44975
-967.44975
-967.44975
-967.44975
-967.44975
-967.44975
-967.44975
-967.44975
-967.44975
-967.44975
-967.44975
-967.44975
-967.44975
-967.44975
-967.44975
-967.44975
-967.44975
-967.44975
-967.44975
-967.44975
-967.44975
-967.44975
-967.44975
-967.44975
-967.44975
-967.44975
-967.44975
-967.44975
-967.44975
-967.44975
-967.44975
-967.44975
-967.44975
-967.44975
-967.44975
-967.44975
-967.44975
-967.44975
-967.44975
-967.44975
-967.44975
-967.44975
-967.44975
-967.44975
-967.44975
-967.44975
-967.44975
-967.44975
-967.44975
-967.44975
-967.44975
-967.44975
-967.44975
-967.44975
-967.44975
-967.44975
-967.44975
-967.44975
-967.44975
-967.44975
-967.44975
-967.44975
-967.44975
-967.44975
-967.44975
-967.44975
-967.44975
-967.44975
-967.44975
-967.44975
-967.44975
-967.44975
-967.44975
-967.44975
-967.44975
-967.44975
-967.44975
-967.44975
-967.44975
-967.44975
-967.44975
-967.44975
-967.44975
-967.44975
-967.44975
-967.44975
-967.44975
-967.44975
-967.44975
-967.44975
-967.44975
-967.44975
-967.44975
-967.44975
-967.44975
-967.44975
-967.44975
-967.44975
-967.44975
-967.44975
-967.44975
-967.44975
-967.44975
-967.44975
-967.44975
-967.44975
-967.44975
-967.44975
-967.44975
-967.44975
-967.44975
-967.44975
-967.44975
-967.44975
-967.44975
-967.44975
-967.44975
-967.44975
-967.44975
-967.44975
-967.44975
-967.44975
-967.44975
-967.44975
-967.44975
-967.44975
-967.44975
-967.44975
-967.44975
-967.44975
-967.44975
-967.44975
-967.44975
-967.44975
-967.44975
-967.44975
-967.44975
-967.44975
-967.44975
-967.44975
-967.44975
-967.44975
-967.44975
-967.44975
-967.44975
-967.44975
-967.44975
-967.44975
-967.44975
-967.44975
-967.44975
-967.44975
-967.44975
-967.44975
-967.44975
-967.44975
-967.44975
-967.44975
-967.44975
-967.44975
-967.44975
-967.44975
-967.44975
-967.44975
-967.44975
-967.44975
-967.44975
-967.44975
-967.44975
-967.44975
-967.44975
-967.44975
-967.44975
-967.44975
-967.44975
-967.44975
-967.44975
-967.44975
-967.44975
-967.44975
-967.44975
-967.44975
-967.44975
-967.44975
-967.44975
-967.44975
-967.44975
-967.44975
-967.44975
-967.44975
-967.44975
-967.44975
-967.44975
-967.44975
-967.44975
-967.44975
-967.44975
-967.44975
-967.44975
-967.44975
-967.44975
-967.44975
-967.44975
-967.44975
-967.44975
-967.44975
-967.44975
-967.44975
-967.44975
-967.44975
-967.44975
-967.44975
-967.44975
-967.44975
-967.44975
-967.44975
-967.44975
-967.44975
-967.44975
-967.44975
-967.44975
-967.44975
-967.44975
-967.44975
-967.44975
-967.44975
-967.44975
-967.44975
-967.44975
-967.44975
-967.44975
-967.44975
-967.44975
-967.44975
-967.44975
-967.44975
-967.44975
-967.44975
-967.44975
-967.44975
-967.44975
-967.44975
-967.44975
-967.44975
-967.44975
-967.44975
-967.44975
-967.44975
-967.44975
-967.44975
-967.44975
-967.44975
-967.44975
-967.44975
-967.44975
-967.44975
-967.44975
-967.44975
-967.44975
-967.44975
-967.44975
-967.44975
-967.44975
-967.44975
-967.44975
-967.44975
-967.44975
-967.44975
-967.44975
-967.44975
-967.44975
-967.44975
-967.44975
-967.44975
-967.44975
-967.44975
-967.44975
-967.44975
-967.44975
-967.44975
-967.44975
-967.44975
-967.44975
-967.44975
-967.44975
-967.44975
-967.44975
-967.44975
-967.44975
-967.44975
-967.44975
-967.44975
-967.44975
-967.44975
-967.44975
-967.44975
-967.44975
-967.44975
-967.44975
-967.44975
-967.44975
-967.44975
-967.44975
-967.44975
-967.44975
-967.44975
-967.44975
-967.44975
-967.44975
-967.44975
-967.44975
-967.44975
-967.44975
-967.44975
-967.44975
-967.44975
-967.44975
-967.44975
-967.44975
-967.44975
-967.44975
-967.44975
-967.44975
-967.44975
-967.44975
-967.44975
-967.44975
-967.44975
-967.44975
-967.44975
-967.44975
-967.44975
-967.44975
-967.44975
-967.44975
-967.44975
-967.44975
-967.44975
-967.44975
-967.44975
-967.44975
-967.44975
-967.44975
-967.44975
-967.44975
-967.44975
-967.44975
-967.44975
-967.44975
-967.44975
-967.44975
-967.44975
-967.44975
-967.44975
-967.44975
-967.44975
-967.44975
-967.44975
-967.44975
-967.44975
-967.44975
-967.44975
-967.44975
-967.44975
-967.44975
-967.44975
-967.44975
-967.44975
-967.44975
-967.44975
-967.44975
-967.44975
-967.44975
-967.44975
-967.44975
-967.44975
-967.44975
-967.44975
-967.44975
-967.44975
-967.44975
-967.44975
-967.44975
-967.44975
-967.44975
-967.44975
-967.44975
-967.44975
-967.44975
-967.44975
-967.44975
-967.44975
-967.44975
-967.44975
-967.44975
-967.44975
-967.44975
-967.44975
-967.44975
-967.44975
-967.44975
-967.44975
-967.44975
-967.44975
-967.44975
-967.44975
-967.44975
-967.44975
-967.44975
-967.44975
-967.44975
-967.44975
-967.44975
-967.44975
-967.44975
-967.44975
-967.44975
-967.44975
-967.44975
-967.44975
-967.44975
-967.44975
-967.44975
-967.44975
-967.44975
-967.44975
-967.44975
-967.44975
-967.44975
-967.44975
-967.44975
-967.44975
-967.44975
-967.44975
-967.44975
-967.44975
-967.44975
-967.44975
-967.44975
-967.44975
-967.44975
-967.44975
-967.44975
-967.44975
-967.44975
-967.44975
-967.44975
-967.44975
-967.44975
-967.44975
-967.44975
-967.44975
-967.44975
-967.44975
-967.44975
-967.44975
-967.44975
-967.44975
-967.44975
-967.44975
-967.44975
-967.44975
-967.44975
-967.44975
-967.44975
-967.44975
-967.44975
-967.44975
-967.44975
-967.44975
-967.44975
-967.44975
-967.44975
-967.44975
-967.44975
-967.44975
-967.44975
-967.44975
-967.44975
-967.44975
-967.44975
-967.44975
-967.44975
-967.44975
-967.44975
-967.44975
-967.44975
-967.44975
-967.44975
-967.44975
-967.44975
-967.44975
-967.44975
-967.44975
-967.44975
-967.44975
-967.44975
-967.44975
-967.44975
-967.44975
-967.44975
-967.44975
-967.44975
-967.44975
-967.44975
-967.44975
-967.44975
-967.44975
-967.44975
-967.44975
-967.44975
-967.44975
-967.44975
-967.44975
-967.44975
-967.44975
-967.44975
-967.44975
-967.44975
-967.44975
-967.44975
-967.44975
-967.44975
-967.44975
-967.44975
-967.44975
-967.44975
-967.44975
-967.44975
-967.44975
-967.44975
-967.44975
-967.44975
-967.44975
-967.44975
-967.44975
-967.44975
-967.44975
-967.44975
-967.44975
-967.44975
-967.44975
-967.44975
-967.44975
-967.44975
-967.44975
-967.44975
-967.44975
-967.44975
-967.44975
-967.44975
-967.44975
-967.44975
-967.44975
-967.44975
-967.44975
-967.44975
-967.44975
-967.44975
-967.44975
-967.44975
-967.44975
-967.44975
-967.44975
-967.44975
-967.44975
-967.44975
-967.44975
-967.44975
-967.44975
-967.44975
-967.44975
-967.44975
-967.44975
-967.44975
-967.44975
-967.44975
-967.44975
-967.44975
-967.44975
-967.44975
-967.44975
-967.44975
-967.44975
-967.44975
-967.44975
-967.44975
-967.44975
-967.44975
-967.44975
-967.44975
-967.44975
-967.44975
-967.44975
-967.44975
-967.44975
-967.44975
-967.44975
-967.44975
-967.44975
-967.44975
-967.44975
-967.44975
-967.44975
-967.44975
-967.44975
-967.44975
-967.44975
-967.44975
-967.44975
-967.44975
-967.44975
-967.44975
-967.44975
-967.44975
-967.44975
-967.44975
-967.44975
-967.44975
-967.44975
-967.44975
-967.44975
-967.44975
-967.44975
-967.44975
-967.44975
-967.44975
-967.44975
-967.44975
-967.44975
-967.44975
-967.44975
-967.44975
-967.44975
-967.44975
-967.44975
-967.44975
-967.44975
-967.44975
-967.44975
-967.44975
-967.44975
-967.44975
-967.44975
-967.44975
-967.44975
-967.44975
-967.44975
-967.44975
-967.44975
-967.44975
-967.44975
-967.44975
-967.44975
-967.44975
-967.44975
-967.44975
-967.44975
-967.44975
-967.44975
-967.44975
-967.44975
-967.44975
-967.44975
-967.44975
-967.44975
-967.44975
-967.44975
-967.44975
-967.44975
-967.44975
-967.44975
-967.44975
-967.44975
-967.44975
-967.44975
-967.44975
-967.44975
-967.44975
-967.44975
-967.44975
-967.44975
-967.44975
-967.44975
-967.44975
-967.44975
-967.44975
-967.44975
-967.44975
-967.44975
-967.44975
-967.44975
-967.44975
-967.44975
-967.44975
-967.44975
-967.44975
-967.44975
-967.44975
-967.44975
-967.44975
-967.44975
-967.44975
-967.44975
-967.44975
-967.44975
-967.44975
-967.44975
-967.44975
-967.44975
-967.44975
-967.44975
-967.44975
-967.44975
-967.44975
-967.44975
-967.44975
-967.44975
-967.44975
-967.44975
-967.44975
-967.44975
-967.44975
-967.44975
-967.44975
-967.44975
-967.44975
-967.44975
-967.44975
-967.44975
-967.44975
-967.44975
-967.44975
-967.44975
-967.44975
-967.44975
-967.44975
-967.44975
-967.44975
-967.44975
-967.44975
-967.44975
-967.44975
-967.44975
-967.44975
-967.44975
-967.44975
-967.44975
-967.44975
-967.44975
-967.44975
-967.44975
-967.44975
-967.44975
-967.44975
-967.44975
-967.44975
-967.44975
-967.44975
-967.44975
-967.44975
-967.44975
-967.44975
-967.44975
-967.44975
-967.44975
-967.44975
-967.44975
-967.44975
-967.44975
-967.44975
-967.44975
-967.44975
-967.44975
-967.44975
-967.44975
-967.44975
-967.44975
-967.44975
-967.44975
-967.44975
-967.44975
-967.44975
-967.44975
-967.44975
-967.44975
-967.44975
-967.44975
-967.44975
-967.44975
-967.44975
-967.44975
-967.44975
-967.44975
-967.44975
-967.44975
-967.44975
-967.44975
-967.44975
-967.44975
-967.44975
-967.44975
-967.44975
-967.44975
-967.44975
-967.44975
-967.44975
-967.44975
-967.44975
-967.44975
-967.44975
-967.44975
-967.44975
-967.44975
-967.44975
-967.44975
-967.44975
-967.44975
-967.44975
-967.44975
-967.44975
-967.44975
-967.44975
-967.44975
-967.44975
-967.44975
-967.44975
-967.44975
-967.44975
-967.44975
-967.44975
-967.44975
-967.44975
-967.44975
-967.44975
-967.44975
-967.44975
-967.44975
-967.44975
-967.44975
-967.44975
-967.44975
-967.44975
-967.44975
-967.44975
-967.44975
-967.44975
-967.44975
-967.44975
-967.44975
-967.44975
-967.44975
-967.44975
-967.44975
-967.44975
-967.44975
-967.44975
-967.44975
-967.44975
-967.44975
-967.44975
-967.44975
-967.44975
-967.44975
-967.44975
-967.44975
-967.44975
-967.44975
-967.44975
-967.44975
-967.44975
-967.44975
-967.44975
-967.44975
-967.44975
-967.44975
-967.44975
-967.44975
-967.44975
-967.44975
-967.44975
-967.44975
-967.44975
-967.44975
-967.44975
-967.44975
-967.44975
-967.44975
-967.44975
-967.44975
-967.44975
-967.44975
-967.44975
-967.44975
-967.44975
-967.44975
-967.44975
-967.44975
-967.44975
-967.44975
-967.44975
-967.44975
-967.44975
-967.44975
-967.44975
-967.44975
-967.44975
-967.44975
-967.44975
-967.44975
-967.44975
-967.44975
-967.44975
-967.44975
-967.44975
-967.44975
-967.44975
-967.44975
-967.44975
-967.44975
-967.44975
-967.44975
-967.44975
-967.44975
-967.44975
-967.44975
-967.44975
-967.44975
-967.44975
-967.44975
-967.44975
-967.44975
-967.44975
-967.44975
-967.44975
-967.44975
-967.44975
-967.44975
-967.44975
-967.44975
-967.44975
-967.44975
-967.44975
-967.44975
-967.44975
-967.44975
-967.44975
-967.44975
-967.44975
-967.44975
-967.44975
-967.44975
-967.44975
-967.44975
-967.44975
-967.44975
-967.44975
-967.44975
-967.44975
-967.44975
-967.44975
-967.44975
-967.44975
-967.44975
-967.44975
-967.44975
-967.44975
-967.44975
-967.44975
-967.44975
-967.44975
-967.44975
-967.44975
-967.44975
-967.44975
-967.44975
-967.44975
-967.44975
-967.44975
-967.44975
-967.44975
-967.44975
-967.44975
-967.44975
-967.44975
-967.44975
-967.44975
-967.44975
-967.44975
-967.44975
-967.44975
-967.44975
-967.44975
-967.44975
-967.44975
-967.44975
-967.44975
-967.44975
-967.44975
-967.44975
-967.44975
-967.44975
-967.44975
-967.44975
-967.44975
-967.44975
-967.44975
-967.44975
-967.44975
-967.44975
-967.44975
-967.44975
-967.44975
-967.44975
-967.44975
-967.44975
-967.44975
-967.44975
-967.44975
-967.44975
-967.44975
-967.44975
-967.44975
-967.44975
-967.44975
-967.44975
-967.44975
-967.44975
-967.44975
-967.44975
-967.44975
-967.44975
-967.44975
-967.44975
-967.44975
-967.44975
-967.44975
-967.44975
-967.44975
-967.44975
-967.44975
-967.44975
-967.44975
-967.44975
-967.44975
-967.44975
-967.44975
-967.44975
-967.44975
-967.44975
-967.44975
-967.44975
-967.44975
-967.44975
-967.44975
-967.44975
-967.44975
-967.44975
-967.44975
-967.44975
-967.44975
-967.44975
-967.44975
-967.44975
-967.44975
-967.44975
-967.44975
-967.44975
-967.44975
-967.44975
-967.44975
-967.44975
-967.44975
-967.44975
-967.44975
-967.44975
-967.44975
-967.44975
-967.44975
-967.44975
-967.44975
-967.44975
-967.44975
-967.44975
-967.44975
-967.44975
-967.44975
-967.44975
-967.44975
-967.44975
-967.44975
-967.44975
-967.44975
-967.44975
-967.44975
-967.44975
-967.44975
-967.44975
-967.44975
-967.44975
-967.44975
-967.44975
-967.44975
-967.44975
-967.44975
-967.44975
-967.44975
-967.44975
-967.44975
-967.44975
-967.44975
-967.44975
-967.44975
-967.44975
-967.44975
-967.44975
-967.44975
-967.44975
-967.44975
-967.44975
-967.44975
-967.44975
-967.44975
-967.44975
-967.44975
-967.44975
-967.44975
-967.44975
-967.44975
-967.44975
-967.44975
-967.44975
-967.44975
-967.44975
-967.44975
-967.44975
-967.44975
-967.44975
-967.44975
-967.44975
-967.44975
-967.44975
-967.44975
-967.44975
-967.44975
-967.44975
-967.44975
-967.44975
-967.44975
-967.44975
-967.44975
-967.44975
-967.44975
-967.44975
-967.44975
-967.44975
-967.44975
-967.44975
-967.44975
-967.44975
-967.44975
-967.44975
-967.44975
-967.44975
-967.44975
-967.44975
-967.44975
-967.44975
-967.44975
-967.44975
-967.44975
-967.44975
-967.44975
-967.44975
-967.44975
-967.44975
-967.44975
-967.44975
-967.44975
-967.44975
-967.44975
-967.44975
-967.44975
-967.44975
-967.44975
-967.44975
-967.44975
-967.44975
-967.44975
-967.44975
-967.44975
-967.44975
-967.44975
-967.44975
-967.44975
-967.44975
-967.44975
-967.44975
-967.44975
-967.44975
-967.44975
-967.44975
-967.44975
-967.44975
-967.44975
-967.44975
-967.44975
-967.44975
-967.44975
-967.44975
-967.44975
-967.44975
-967.44975
-967.44975
-967.44975
-967.44975
-967.44975
-967.44975
-967.44975
-967.44975
-967.44975
-967.44975
-967.44975
-967.44975
-967.44975
-967.44975
-967.44975
-967.44975
-967.44975
-967.44975
-967.44975
-967.44975
-967.44975
-967.44975
-967.44975
-967.44975
-967.44975
-967.44975
-967.44975
-967.44975
-967.44975
-967.44975
-967.44975
-967.44975
-967.44975
-967.44975
-967.44975
-967.44975
-967.44975
-967.44975
-967.44975
-967.44975
-967.44975
-967.44975
-967.44975
-967.44975
-967.44975
-967.44975
-967.44975
-967.44975
-967.44975
-967.44975
-967.44975
-967.44975
-967.44975
-967.44975
-967.44975
-967.44975
-967.44975
-967.44975
-967.44975
-967.44975
-967.44975
-967.44975
-967.44975
-967.44975
-967.44975
-967.44975
-967.44975
-967.44975
-967.44975
-967.44975
-967.44975
-967.44975
-967.44975
-967.44975
-967.44975
-967.44975
-967.44975
-967.44975
-967.44975
-967.44975
-967.44975
-967.44975
-967.44975
-967.44975
-967.44975
-967.44975
-967.44975
-967.44975
-967.44975
-967.44975
-967.44975
-967.44975
-967.44975
-967.44975
-967.44975
-967.44975
-967.44975
-967.44975
-967.44975
-967.44975
-967.44975
-967.44975
-967.44975
-967.44975
-967.44975
-967.44975
-967.44975
-967.44975
-967.44975
-967.44975
-967.44975
-967.44975
-967.44975
-967.44975
-967.44975
-967.44975
-967.44975
-967.44975
-967.44975
-967.44975
-967.44975
-967.44975
-967.44975
-967.44975
-967.44975
-967.44975
-967.44975
-967.44975
-967.44975
-967.44975
-967.44975
-967.44975
-967.44975
-967.44975
-967.44975
-967.44975
-967.44975
-967.44975
-967.44975
-967.44975
-967.44975
-967.44975
-967.44975
-967.44975
-967.44975
-967.44975
-967.44975
-967.44975
-967.44975
-967.44975
-967.44975
-967.44975
-967.44975
-967.44975
-967.44975
-967.44975
-967.44975
-967.44975
-967.44975
-967.44975
-967.44975
-967.44975
-967.44975
-967.44975
-967.44975
-967.44975
-967.44975
-967.44975
-967.44975
-967.44975
-967.44975
-967.44975
-967.44975
-967.44975
-967.44975
-967.44975
-967.44975
-967.44975
-967.44975
-967.44975
-967.44975
-967.44975
-967.44975
-967.44975
-967.44975
-967.44975
-967.44975
-967.44975
-967.44975
-967.44975
-967.44975
-967.44975
-967.44975
-967.44975
-967.44975
-967.44975
-967.44975
-967.44975
-967.44975
-967.44975
-967.44975
-967.44975
-967.44975
-967.44975
-967.44975
-967.44975
-967.44975
-967.44975
-967.44975
-967.44975
-967.44975
-967.44975
-967.44975
-967.44975
-967.44975
-967.44975
-967.44975
-967.44975
-967.44975
-967.44975
-967.44975
-967.44975
-967.44975
-967.44975
-967.44975
-967.44975
-967.44975
-967.44975
-967.44975
-967.44975
-967.44975
-967.44975
-967.44975
-967.44975
-967.44975
-967.44975
-967.44975
-967.44975
-967.44975
-967.44975
-967.44975
-967.44975
-967.44975
-967.44975
-967.44975
-967.44975
-967.44975
-967.44975
-967.44975
-967.44975
-967.44975
-967.44975
-967.44975
-967.44975
-967.44975
-967.44975
-967.44975
-967.44975
-967.44975
-967.44975
-967.44975
-967.44975
-967.44975
-967.44975
-967.44975
-967.44975
-967.44975
-967.44975
-967.44975
-967.44975
-967.44975
-967.44975
-967.44975
-967.44975
-967.44975
-967.44975
-967.44975
-967.44975
-967.44975
-967.44975
-967.44975
-967.44975
-967.44975
-967.44975
-967.44975
-967.44975
-967.44975
-967.44975
-967.44975
-967.44975
-967.44975
-967.44975
-967.44975
-967.44975
-967.44975
-967.44975
-967.44975
-967.44975
-967.44975
-967.44975
-967.44975
-967.44975
-967.44975
-967.44975
-967.44975
-967.44975
-967.44975
-967.44975
-967.44975
-967.44975
-967.44975
-967.44975
-967.44975
-967.44975
-967.44975
-967.44975
-967.44975
-967.44975
-967.44975
-967.44975
-967.44975
-967.44975
-967.44975
-967.44975
-967.44975
-967.44975
-967.44975
-967.44975
-967.44975
-967.44975
-967.44975
-967.44975
-967.44975
-967.44975
-967.44975
-967.44975
-967.44975
-967.44975
-967.44975
-967.44975
-967.44975
-967.44975
-967.44975
-967.44975
-967.44975
-967.44975
-967.44975
-967.44975
-967.44975
-967.44975
-967.44975
-967.44975
-967.44975
-967.44975
-967.44975
-967.44975
-967.44975
-967.44975
-967.44975
-967.44975
-967.44975
-967.44975
-967.44975
-967.44975
-967.44975
-967.44975
-967.44975
-967.44975
-967.44975
-967.44975
-967.44975
-967.44975
-967.44975
-967.44975
-967.44975
-967.44975
-967.44975
-967.44975
-967.44975
-967.44975
-967.44975
-967.44975
-967.44975
-967.44975
-967.44975
-967.44975
-967.44975
-967.44975
-967.44975
-967.44975
-967.44975
-967.44975
-967.44975
-967.44975
-967.44975
-967.44975
-967.44975
-967.44975
-967.44975
-967.44975
-967.44975
-967.44975
-967.44975
-967.44975
-967.44975
-967.44975
-967.44975
-967.44975
-967.44975
-967.44975
-967.44975
-967.44975
-967.44975
-967.44975
-967.44975
-967.44975
-967.44975
-967.44975
-967.44975
-967.44975
-967.44975
-967.44975
-967.44975
-967.44975
-967.44975
-967.44975
-967.44975
-967.44975
-967.44975
-967.44975
-967.44975
-967.44975
-967.44975
-967.44975
-967.44975
-967.44975
-967.44975
-967.44975
-967.44975
-967.44975
-967.44975
-967.44975
-967.44975
-967.44975
-967.44975
-967.44975
-967.44975
-967.44975
-967.44975
-967.44975
-967.44975
-967.44975
-967.44975
-967.44975
-967.44975
-967.44975
-967.44975
-967.44975
-967.44975
-967.44975
-967.44975
-967.44975
-967.44975
-967.44975
-967.44975
-967.44975
-967.44975
-967.44975
-967.44975
-967.44975
-967.44975
-967.44975
-967.44975
-967.44975
-967.44975
-967.44975
-967.44975
-967.44975
-967.44975
-967.44975
-967.44975
-967.44975
-967.44975
-967.44975
-967.44975
-967.44975
-967.44975
-967.44975
-967.44975
-967.44975
-967.44975
-967.44975
-967.44975
-967.44975
-967.44975
-967.44975
-967.44975
-967.44975
-967.44975
-967.44975
-967.44975
-967.44975
-967.44975
-967.44975
-967.44975
-967.44975
-967.44975
-967.44975
-967.44975
-967.44975
-967.44975
-967.44975
-967.44975
-967.44975
-967.44975
-967.44975
-967.44975
-967.44975
-967.44975
-967.44975
-967.44975
-967.44975
-967.44975
-967.44975
-967.44975
-967.44975
-967.44975
-967.44975
-967.44975
-967.44975
-967.44975
-967.44975
-967.44975
-967.44975
-967.44975
-967.44975
-967.44975
-967.44975
-967.44975
-967.44975
-967.44975
-967.44975
-967.44975
-967.44975
-967.44975
-967.44975
-967.44975
-967.44975
-967.44975
-967.44975
-967.44975
-967.44975
-967.44975
-967.44975
-967.44975
-967.44975
-967.44975
-967.44975
-967.44975
-967.44975
-967.44975
-967.44975
-967.44975
-967.44975
-967.44975
-967.44975
-967.44975
-967.44975
-967.44975
-967.44975
-967.44975
-967.44975
-967.44975
-967.44975
-967.44975
-967.44975
-967.44975
-967.44975
-967.44975
-967.44975
-967.44975
-967.44975
-967.44975
-967.44975
-967.44975
-967.44975
-967.44975
-967.44975
-967.44975
-967.44975
-967.44975
-967.44975
-967.44975
-967.44975
-967.44975
-967.44975
-967.44975
-967.44975
-967.44975
-967.44975
-967.44975
-967.44975
-967.44975
-967.44975
-967.44975
-967.44975
-967.44975
-967.44975
-967.44975
-967.44975
-967.44975
