6.59869427e-01
4.81695871e-01
3.67578249e-01
3.50581617e-01
3.57068349e-01
3.49380045e-01
3.27403507e-01
3.00972115e-01
2.80829024e-01
2.70082740e-01
2.64250266e-01
2.58319933e-01
2.50831635e-01
2.43026086e-01
2.36490390e-01
2.31594293e-01
2.27630666e-01
2.23792348e-01
2.19830843e-01
2.15993121e-01
2.12550273e-01
2.09510608e-01
2.06714125e-01
2.04007052e-01
2.01357214e-01
1.98812168e-01
1.96408626e-01
1.94150382e-01
1.92003504e-01
1.89935231e-01
1.87935737e-01
1.86004459e-01
1.84154785e-01
1.82391175e-01
1.80698121e-01
1.79067062e-01
1.77480621e-01
1.75929656e-01
1.74403087e-01
1.72913753e-01
1.71466678e-01
1.70055155e-01
1.68679175e-01
1.67341760e-01
1.66042128e-01
1.64781026e-01
1.63550608e-01
1.62338755e-01
1.61148833e-01
1.59985707e-01
1.58849347e-01
1.57733050e-01
1.56637051e-01
1.55570138e-01
1.54527328e-01
1.53496237e-01
1.52479954e-01
1.51481464e-01
1.50507518e-01
1.49549531e-01
1.48607284e-01
1.47681524e-01
1.46771094e-01
1.45868843e-01
1.44973095e-01
1.44082677e-01
1.43198310e-01
1.42330687e-01
1.41485926e-01
1.40658345e-01
1.39842585e-01
1.39036875e-01
1.38236084e-01
1.37443051e-01
1.36662653e-01
1.35892586e-01
1.35128394e-01
1.34366471e-01
1.33612261e-01
1.32866572e-01
1.32133006e-01
1.31409049e-01
1.30694677e-01
1.29982272e-01
1.29274868e-01
1.28578330e-01
1.27892750e-01
1.27206855e-01
1.26520043e-01
1.25841896e-01
1.25174848e-01
1.24515939e-01
1.23864213e-01
1.23216252e-01
1.22571195e-01
1.21927909e-01
1.21287480e-01
1.20655509e-01
1.20035726e-01
1.19426725e-01
1.18823557e-01
1.18220164e-01
1.17620330e-01
1.17026549e-01
1.16436618e-01
1.15852651e-01
1.15271187e-01
1.14697131e-01
1.14129809e-01
1.13571556e-01
1.13019667e-01
1.12468008e-01
1.11913044e-01
1.11360594e-01
1.10819204e-01
1.10288392e-01
1.09763065e-01
1.09240377e-01
1.08720874e-01
1.08205397e-01
1.07692475e-01
1.07183968e-01
1.06680572e-01
1.06186247e-01
1.05694710e-01
1.05205414e-01
1.04719014e-01
1.04229933e-01
1.03743080e-01
1.03261431e-01
1.02783850e-01
1.02310476e-01
1.01842158e-01
1.01382556e-01
1.00930679e-01
1.00479484e-01
1.00027398e-01
9.95758529e-02
9.91263810e-02
9.86758737e-02
9.82299794e-02
9.77916873e-02
9.73593232e-02
9.69302622e-02
9.65039747e-02
9.60797588e-02
9.56572640e-02
9.52409365e-02
9.48319349e-02
9.44242212e-02
9.40127193e-02
9.36037532e-02
9.32021527e-02
9.28057667e-02
9.24113197e-02
9.20157463e-02
9.16225567e-02
9.12355761e-02
9.08502309e-02
9.04652410e-02
9.00829335e-02
8.97033833e-02
8.93282660e-02
8.89567517e-02
8.85861496e-02
8.82182687e-02
8.78531261e-02
8.74881775e-02
8.71273275e-02
8.67734226e-02
8.64260590e-02
8.60787520e-02
8.57297050e-02
8.53819337e-02
8.50391847e-02
8.47040368e-02
8.43736039e-02
8.40405675e-02
8.37028103e-02
8.33651770e-02
8.30282705e-02
8.26932377e-02
8.23608145e-02
8.20314408e-02
8.17057142e-02
8.13865476e-02
8.10742333e-02
8.07624861e-02
8.04514543e-02
8.01394466e-02
7.98268990e-02
7.95149092e-02
7.92068085e-02
7.89013011e-02
7.85975076e-02
7.82944278e-02
7.79897604e-02
7.76880199e-02
7.73895301e-02
7.70945416e-02
7.68019301e-02
7.65130099e-02
7.62233506e-02
7.59342343e-02
7.56496219e-02
7.53663571e-02
7.50858949e-02
7.48070513e-02
7.45293994e-02
7.42526870e-02
7.39777213e-02
7.37070610e-02
7.34374451e-02
7.31681524e-02
7.28996521e-02
7.26334203e-02
7.23696268e-02
7.21064388e-02
7.18415703e-02
7.15777561e-02
7.13173471e-02
7.10639255e-02
7.08164654e-02
7.05704722e-02
7.03218515e-02
7.00721360e-02
6.98196580e-02
6.95658749e-02
6.93170937e-02
6.90747245e-02
6.88345180e-02
6.85962234e-02
6.83557922e-02
6.81140313e-02
6.78730385e-02
6.76321929e-02
6.73939114e-02
6.71572052e-02
6.69221378e-02
6.66893747e-02
6.64599689e-02
6.62328343e-02
6.60069218e-02
6.57808306e-02
6.55550135e-02
6.53315557e-02
6.51102899e-02
6.48921809e-02
6.46754636e-02
6.44586105e-02
6.42425916e-02
6.40286287e-02
6.38144331e-02
6.36001962e-02
6.33869049e-02
6.31758549e-02
6.29665255e-02
6.27540060e-02
6.25389718e-02
6.23237710e-02
6.21145305e-02
6.19107976e-02
6.17067120e-02
6.15039229e-02
6.13002126e-02
6.10933681e-02
6.08872798e-02
6.06850444e-02
6.04863426e-02
6.02894988e-02
6.00921660e-02
5.98934469e-02
5.96932771e-02
5.94913713e-02
5.92875741e-02
5.90832204e-02
5.88846981e-02
5.86941798e-02
5.85100435e-02
5.83295911e-02
5.81484633e-02
5.79649944e-02
5.77761086e-02
5.75870081e-02
5.74022152e-02
5.72185660e-02
5.70371908e-02
5.68564225e-02
5.66749962e-02
5.64917850e-02
5.63041894e-02
5.61158739e-02
5.59322291e-02
5.57523231e-02
5.55718176e-02
5.53921569e-02
5.52155106e-02
5.50436369e-02
5.48736643e-02
5.47044997e-02
5.45357399e-02
5.43649266e-02
5.41908964e-02
5.40168869e-02
5.38471463e-02
5.36805852e-02
5.35153990e-02
5.33455842e-02
5.31702382e-02
5.29947043e-02
5.28237200e-02
5.26586196e-02
5.24943418e-02
5.23299485e-02
5.21647199e-02
5.19961952e-02
5.18290000e-02
5.16681368e-02
5.15103696e-02
5.13516502e-02
5.11896137e-02
5.10271661e-02
5.08676339e-02
5.07131339e-02
5.05645233e-02
5.04173039e-02
5.02666239e-02
5.01147335e-02
4.99634277e-02
4.98150148e-02
4.96685750e-02
4.95197471e-02
4.93679663e-02
4.92179685e-02
4.90727305e-02
4.89298433e-02
4.87874936e-02
4.86405932e-02
4.84907373e-02
4.83398360e-02
4.81914616e-02
4.80488293e-02
4.79107000e-02
4.77739194e-02
4.76365442e-02
4.74959778e-02
4.73508290e-02
4.72063716e-02
4.70648961e-02
4.69275768e-02
4.67936104e-02
4.66595952e-02
4.65250782e-02
4.63889383e-02
4.62510062e-02
4.61117722e-02
4.59710810e-02
4.58306568e-02
4.56945782e-02
4.55623845e-02
4.54302994e-02
4.52957846e-02
4.51623087e-02
4.50313155e-02
4.49037961e-02
4.47776583e-02
4.46484642e-02
4.45205521e-02
4.43951134e-02
4.42709440e-02
4.41437298e-02
4.40153355e-02
4.38880165e-02
4.37574316e-02
4.36238833e-02
4.34912469e-02
4.33618906e-02
4.32357056e-02
4.31131448e-02
4.29903007e-02
4.28654282e-02
4.27390539e-02
4.26140085e-02
4.24925677e-02
4.23733808e-02
4.22546141e-02
4.21342576e-02
4.20119137e-02
4.18871272e-02
4.17632937e-02
4.16448135e-02
4.15295655e-02
4.14145902e-02
4.12974902e-02
4.11783837e-02
4.10589688e-02
4.09414079e-02
4.08281736e-02
4.07155849e-02
4.06042165e-02
4.04907614e-02
4.03731362e-02
4.02550361e-02
4.01407293e-02
4.00282579e-02
3.99148375e-02
3.97990722e-02
3.96827279e-02
3.95697208e-02
3.94608519e-02
3.93521950e-02
3.92411819e-02
3.91288043e-02
3.90166657e-02
3.89088093e-02
3.88020666e-02
3.86899978e-02
3.85741482e-02
3.84575791e-02
3.83458000e-02
3.82406310e-02
3.81400368e-02
3.80391386e-02
3.79326987e-02
3.78226548e-02
3.77106717e-02
3.75973308e-02
3.74836058e-02
3.73746640e-02
3.72720665e-02
3.71752583e-02
3.70802312e-02
3.69807354e-02
3.68747414e-02
3.67653357e-02
3.66561917e-02
3.65480096e-02
3.64437817e-02
3.63428221e-02
3.62388352e-02
3.61357108e-02
3.60347460e-02
3.59327985e-02
3.58309428e-02
3.57327157e-02
3.56380244e-02
3.55450702e-02
3.54499555e-02
3.53517450e-02
3.52533923e-02
3.51556039e-02
3.50595622e-02
3.49661875e-02
3.48752657e-02
3.47834804e-02
3.46899146e-02
3.45973730e-02
3.45070686e-02
3.44149736e-02
3.43210010e-02
3.42283512e-02
3.41365906e-02
3.40456939e-02
3.39509311e-02
3.38537130e-02
3.37589845e-02
3.36700501e-02
3.35805894e-02
3.34905569e-02
3.34021945e-02
3.33124024e-02
3.32214939e-02
3.31304508e-02
3.30417271e-02
3.29572999e-02
3.28755845e-02
3.27914766e-02
3.27038614e-02
3.26155597e-02
3.25244790e-02
3.24341359e-02
3.23474661e-02
3.22608162e-02
3.21736597e-02
3.20864391e-02
3.19972015e-02
3.19083572e-02
3.18211147e-02
3.17392070e-02
3.16617924e-02
3.15849834e-02
3.15061104e-02
3.14214712e-02
3.13345599e-02
3.12497920e-02
3.11706107e-02
3.10962503e-02
3.10225630e-02
3.09427771e-02
3.08546719e-02
3.07653971e-02
3.06831234e-02
3.06069551e-02
3.05297915e-02
3.04499942e-02
3.03678286e-02
3.02845672e-02
3.02020120e-02
3.01218295e-02
3.00422121e-02
2.99626412e-02
2.98836733e-02
2.98051174e-02
2.97259281e-02
2.96436174e-02
2.95618919e-02
2.94822667e-02
2.94047661e-02
2.93270364e-02
2.92515450e-02
2.91771634e-02
2.91020787e-02
2.90255012e-02
2.89471838e-02
2.88690773e-02
2.87938522e-02
2.87220924e-02
2.86503242e-02
2.85767989e-02
2.84980156e-02
2.84175932e-02
2.83391576e-02
2.82628429e-02
2.81858733e-02
2.81053656e-02
2.80247751e-02
2.79473407e-02
2.78737319e-02
2.77990331e-02
2.77210152e-02
2.76420590e-02
2.75649305e-02
2.74929055e-02
2.74258868e-02
2.73621264e-02
2.72988775e-02
2.72315148e-02
2.71593080e-02
2.70854145e-02
2.70121445e-02
2.69391100e-02
2.68689740e-02
2.68025869e-02
2.67381897e-02
2.66748978e-02
2.66102058e-02
2.65437130e-02
2.64755542e-02
2.64069505e-02
2.63419289e-02
2.62810602e-02
2.62204863e-02
2.61592985e-02
2.60949339e-02
2.60290042e-02
2.59634332e-02
2.58996705e-02
2.58358624e-02
2.57697685e-02
2.57031075e-02
2.56387280e-02
2.55777492e-02
2.55184679e-02
2.54583473e-02
2.53971627e-02
2.53316076e-02
2.52617103e-02
2.51938138e-02
2.51307432e-02
2.50705953e-02
2.50102837e-02
2.49493771e-02
2.48897802e-02
2.48306926e-02
2.47713754e-02
2.47112140e-02
2.46510829e-02
2.45922156e-02
2.45350726e-02
2.44781794e-02
2.44216897e-02
2.43660314e-02
2.43090544e-02
2.42484763e-02
2.41845651e-02
2.41160484e-02
2.40497478e-02
2.39884867e-02
2.39304274e-02
2.38718125e-02
2.38136028e-02
2.37546167e-02
2.36937556e-02
2.36327395e-02
2.35729128e-02
2.35149586e-02
2.34582461e-02
2.34006408e-02
2.33418832e-02
2.32839967e-02
2.32262799e-02
2.31691025e-02
2.31136068e-02
2.30592484e-02
2.30050836e-02
2.29499017e-02
2.28915237e-02
2.28332378e-02
2.27778381e-02
2.27245981e-02
2.26721824e-02
2.26212420e-02
2.25716859e-02
2.25220683e-02
2.24710552e-02
2.24187715e-02
2.23653846e-02
2.23118165e-02
2.22592461e-02
2.22083468e-02
2.21586480e-02
2.21084559e-02
2.20572506e-02
2.20065984e-02
2.19573352e-02
2.19085396e-02
2.18571866e-02
2.18047391e-02
2.17524499e-02
2.16993023e-02
2.16457078e-02
2.15933284e-02
2.15431478e-02
2.14936794e-02
2.14420078e-02
2.13907301e-02
2.13401405e-02
2.12905825e-02
2.12420426e-02
2.11941157e-02
2.11456933e-02
2.10963987e-02
2.10469970e-02
2.09949007e-02
2.09408782e-02
2.08885929e-02
2.08400309e-02
2.07940011e-02
2.07485464e-02
2.07016370e-02
2.06524568e-02
2.06019829e-02
2.05522969e-02
2.05041742e-02
2.04570995e-02
2.04088932e-02
2.03585137e-02
2.03062218e-02
2.02554350e-02
2.02065341e-02
2.01590440e-02
2.01128110e-02
2.00656046e-02
2.00176967e-02
1.99699242e-02
1.99222913e-02
1.98747870e-02
1.98271247e-02
1.97812562e-02
1.97377502e-02
1.96953676e-02
1.96517759e-02
1.96053193e-02
1.95576678e-02
1.95096260e-02
1.94620694e-02
1.94160835e-02
1.93714874e-02
1.93269810e-02
1.92827773e-02
1.92373115e-02
1.91924544e-02
1.91490309e-02
1.91051954e-02
1.90607902e-02
1.90132231e-02
1.89653872e-02
1.89206844e-02
1.88792533e-02
1.88394373e-02
1.87986167e-02
1.87541187e-02
1.87081277e-02
1.86626605e-02
1.86201128e-02
1.85790796e-02
1.85371283e-02
1.84949318e-02
1.84522470e-02
1.84100892e-02
1.83684568e-02
1.83271358e-02
1.82859540e-02
1.82463188e-02
1.82074933e-02
1.81688330e-02
1.81289996e-02
1.80879163e-02
1.80453679e-02
1.80010513e-02
1.79570531e-02
1.79130321e-02
1.78708369e-02
1.78293304e-02
1.77884569e-02
1.77472042e-02
1.77051924e-02
1.76638775e-02
1.76236507e-02
1.75848687e-02
1.75467432e-02
1.75065198e-02
1.74638628e-02
1.74211543e-02
1.73803536e-02
1.73413810e-02
1.73039504e-02
1.72662442e-02
1.72274967e-02
1.71883651e-02
1.71498508e-02
1.71125546e-02
1.70757255e-02
1.70386436e-02
1.70001086e-02
1.69612332e-02
1.69207749e-02
1.68779852e-02
1.68348826e-02
1.67932685e-02
1.67527581e-02
1.67140444e-02
1.66754585e-02
1.66366967e-02
1.65971960e-02
1.65582902e-02
1.65209866e-02
1.64836878e-02
1.64472216e-02
1.64109314e-02
1.63740764e-02
1.63355247e-02
1.62972556e-02
1.62592006e-02
1.62218364e-02
1.61861390e-02
1.61511875e-02
1.61147033e-02
1.60788092e-02
1.60436312e-02
1.60076393e-02
1.59721053e-02
1.59369669e-02
1.59004299e-02
1.58616909e-02
1.58231949e-02
1.57859642e-02
1.57486208e-02
1.57097194e-02
1.56712100e-02
1.56327321e-02
1.55963656e-02
1.55628448e-02
1.55312538e-02
1.54988810e-02
1.54635893e-02
1.54271637e-02
1.53900382e-02
1.53542388e-02
1.53202173e-02
1.52881846e-02
1.52567826e-02
1.52252645e-02
1.51927407e-02
1.51597076e-02
1.51257720e-02
1.50910264e-02
1.50566594e-02
1.50245764e-02
1.49942234e-02
1.49644787e-02
1.49340441e-02
1.49009387e-02
1.48674057e-02
1.48343229e-02
1.48014361e-02
1.47692108e-02
1.47380980e-02
1.47082849e-02
1.46778174e-02
1.46457257e-02
1.46139451e-02
1.45831997e-02
1.45524187e-02
1.45225911e-02
1.44920878e-02
1.44610479e-02
1.44294882e-02
1.43974006e-02
1.43663335e-02
1.43358367e-02
1.43062816e-02
1.42777848e-02
1.42501292e-02
1.42220974e-02
1.41939019e-02
1.41641066e-02
1.41335709e-02
1.41034149e-02
1.40739570e-02
1.40432877e-02
1.40129872e-02
1.39839638e-02
1.39559113e-02
1.39280262e-02
1.38995526e-02
1.38699852e-02
1.38404912e-02
1.38108471e-02
1.37823075e-02
1.37542296e-02
1.37239384e-02
1.36934939e-02
1.36629901e-02
1.36326922e-02
1.36020986e-02
1.35723627e-02
1.35445203e-02
1.35176160e-02
1.34905281e-02
1.34628262e-02
1.34353314e-02
1.34080487e-02
1.33796621e-02
1.33507767e-02
1.33225838e-02
1.32953086e-02
1.32691953e-02
1.32441766e-02
1.32188172e-02
1.31927247e-02
1.31662001e-02
1.31389453e-02
1.31086757e-02
1.30776457e-02
1.30487388e-02
1.30214237e-02
1.29958018e-02
1.29714974e-02
1.29473808e-02
1.29223337e-02
1.28963302e-02
1.28710331e-02
1.28468861e-02
1.28232131e-02
1.27987206e-02
1.27733377e-02
1.27476325e-02
1.27218173e-02
1.26967684e-02
1.26723304e-02
1.26480060e-02
1.26222477e-02
1.25964159e-02
1.25707185e-02
1.25452518e-02
1.25203782e-02
1.24939588e-02
1.24660001e-02
1.24381891e-02
1.24124977e-02
1.23891056e-02
1.23664993e-02
1.23428317e-02
1.23180668e-02
1.22937251e-02
1.22696035e-02
1.22457506e-02
1.22216196e-02
1.21968173e-02
1.21719285e-02
1.21475118e-02
1.21228714e-02
1.20985013e-02
1.20737350e-02
1.20473885e-02
1.20219366e-02
1.19982915e-02
1.19759622e-02
1.19538683e-02
1.19318604e-02
1.19096776e-02
1.18854227e-02
1.18569192e-02
1.18270045e-02
1.18005212e-02
1.17776089e-02
1.17565521e-02
1.17360748e-02
1.17140408e-02
1.16904608e-02
1.16668738e-02
1.16431510e-02
1.16191853e-02
1.15958716e-02
1.15733180e-02
1.15507860e-02
1.15272701e-02
1.15037354e-02
1.14787331e-02
1.14521986e-02
1.14264190e-02
1.14025551e-02
1.13783998e-02
1.13524266e-02
1.13272101e-02
1.13048378e-02
1.12846202e-02
1.12646966e-02
1.12433220e-02
1.12201703e-02
1.11972842e-02
1.11759889e-02
1.11557782e-02
1.11348285e-02
1.11130391e-02
1.10915809e-02
1.10699169e-02
1.10474209e-02
1.10259668e-02
1.10055677e-02
1.09847755e-02
1.09635553e-02
1.09420300e-02
1.09207447e-02
1.09010819e-02
1.08817179e-02
1.08616464e-02
1.08409056e-02
1.08190777e-02
1.07969846e-02
1.07757402e-02
1.07536183e-02
1.07307138e-02
1.07094923e-02
1.06902461e-02
1.06717727e-02
1.06510830e-02
1.06275691e-02
1.06041634e-02
1.05835989e-02
1.05658323e-02
1.05489211e-02
1.05313188e-02
1.05113229e-02
1.04890384e-02
1.04670420e-02
1.04454873e-02
1.04234390e-02
1.04007075e-02
1.03778658e-02
1.03537736e-02
1.03309766e-02
1.03101567e-02
1.02909805e-02
1.02724072e-02
1.02530196e-02
1.02326942e-02
1.02117928e-02
1.01899534e-02
1.01676705e-02
1.01464484e-02
1.01247865e-02
1.01036093e-02
1.00836540e-02
1.00632632e-02
1.00419983e-02
1.00214199e-02
1.00017849e-02
9.98276335e-03
9.96329142e-03
9.94335216e-03
9.92432494e-03
9.90614622e-03
9.88779302e-03
9.86905441e-03
9.85004232e-03
9.83068249e-03
9.81171425e-03
9.79355479e-03
9.77510023e-03
9.75481428e-03
9.73460310e-03
9.71339361e-03
9.69364987e-03
9.67582742e-03
9.65832000e-03
9.63967966e-03
9.62049587e-03
9.60172217e-03
9.58242989e-03
9.56085171e-03
9.53766620e-03
9.51509661e-03
9.49503205e-03
9.47672132e-03
9.45856693e-03
9.44049039e-03
9.42199933e-03
9.40353688e-03
9.38513777e-03
9.36681091e-03
9.34898152e-03
9.33135740e-03
9.31241451e-03
9.29353234e-03
9.27497696e-03
9.25761394e-03
9.24158968e-03
9.22626523e-03
9.20982115e-03
9.19214032e-03
9.17295401e-03
9.15224825e-03
9.13182347e-03
9.11245581e-03
9.09380592e-03
9.07448321e-03
9.05518224e-03
9.03690514e-03
9.01878887e-03
9.00021263e-03
8.98123884e-03
8.96129536e-03
8.94228771e-03
8.92424970e-03
8.90635715e-03
8.88756651e-03
8.86725308e-03
8.84612737e-03
8.82539766e-03
8.80621216e-03
8.78747130e-03
8.76833064e-03
8.74871392e-03
8.72977729e-03
8.71261380e-03
8.69636530e-03
8.67820790e-03
8.65965095e-03
8.64221548e-03
8.62450085e-03
8.60522135e-03
8.58387129e-03
8.56327119e-03
8.54441216e-03
8.52656675e-03
8.50904089e-03
8.49040292e-03
8.47025488e-03
8.44961876e-03
8.42825117e-03
8.40801211e-03
8.38977422e-03
8.37310172e-03
8.35598707e-03
8.33783167e-03
8.31856428e-03
8.30029575e-03
8.28370218e-03
8.26752524e-03
8.25177694e-03
8.23552261e-03
8.21912047e-03
8.20234337e-03
8.18437273e-03
8.16507505e-03
8.14641146e-03
8.12876629e-03
8.11203399e-03
8.09655237e-03
8.08119838e-03
8.06406745e-03
8.04615523e-03
8.02867321e-03
8.01139992e-03
7.99515873e-03
7.97901576e-03
7.96245744e-03
7.94571514e-03
7.92814899e-03
7.91125369e-03
7.89515708e-03
7.87936271e-03
7.86387663e-03
7.84776703e-03
7.83076323e-03
7.81400580e-03
7.79790753e-03
7.78200557e-03
7.76651212e-03
7.75160244e-03
7.73596201e-03
7.71742573e-03
7.69818722e-03
7.68096761e-03
7.66565384e-03
7.65036133e-03
7.63433143e-03
7.61689763e-03
7.59840614e-03
7.58090994e-03
7.56458967e-03
7.54968560e-03
7.53449792e-03
7.51864968e-03
7.50220651e-03
7.48536203e-03
7.46870102e-03
7.45146736e-03
7.43403510e-03
7.41629380e-03
7.39916689e-03
7.38215600e-03
7.36647077e-03
7.35166709e-03
7.33550330e-03
7.31836977e-03
7.30084983e-03
7.28378649e-03
7.26758012e-03
7.25202879e-03
7.23662874e-03
7.22100101e-03
7.20577438e-03
7.19084111e-03
7.17513399e-03
7.15975856e-03
7.14428839e-03
7.12949147e-03
7.11620990e-03
7.10336309e-03
7.09050505e-03
7.07753298e-03
7.06373415e-03
7.04913193e-03
7.03459499e-03
7.02043644e-03
7.00644221e-03
6.99148037e-03
6.97558319e-03
6.95947814e-03
6.94403353e-03
6.92906582e-03
6.91452443e-03
6.89960621e-03
6.88494338e-03
6.87070200e-03
6.85602461e-03
6.84046284e-03
6.82453568e-03
6.81012364e-03
6.79740140e-03
6.78400053e-03
6.76994540e-03
6.75540898e-03
6.74130387e-03
6.72763488e-03
6.71457392e-03
6.70106607e-03
6.68698539e-03
6.67385060e-03
6.66092565e-03
6.64720759e-03
6.63338185e-03
6.61970185e-03
6.60534465e-03
6.58979840e-03
6.57333210e-03
6.55668420e-03
6.53920647e-03
6.52315048e-03
6.50639625e-03
6.48673829e-03
6.46799956e-03
6.45075668e-03
6.43549140e-03
6.42212512e-03
6.40893533e-03
6.39211599e-03
6.37521775e-03
6.36032868e-03
6.34827816e-03
6.33738384e-03
6.32205358e-03
6.30354202e-03
6.28660369e-03
6.27165460e-03
6.25877906e-03
6.24703241e-03
6.23510010e-03
6.22302611e-03
6.21134179e-03
6.20034695e-03
6.18977276e-03
6.17944092e-03
6.16902541e-03
6.15747069e-03
6.14316172e-03
6.12847026e-03
6.11531037e-03
6.10344991e-03
6.09274245e-03
6.08274051e-03
6.07246959e-03
6.06186211e-03
6.05116816e-03
6.03945359e-03
6.02756184e-03
6.01470836e-03
6.00156548e-03
5.98928325e-03
5.97837069e-03
5.96792955e-03
5.95793501e-03
5.94749334e-03
5.93471628e-03
5.91981199e-03
5.90474504e-03
5.89087862e-03
5.87855417e-03
5.86561400e-03
5.85166752e-03
5.83874374e-03
5.82446936e-03
5.81002333e-03
5.79650228e-03
5.78356942e-03
5.77198517e-03
5.76130840e-03
5.75105409e-03
5.74108153e-03
5.73132238e-03
5.72016351e-03
5.70685397e-03
5.69354743e-03
5.68087239e-03
5.66950143e-03
5.65936406e-03
5.65006707e-03
5.63909160e-03
5.62629740e-03
5.61404782e-03
5.60258915e-03
5.59104062e-03
5.57991119e-03
5.56794304e-03
5.55476240e-03
5.54204528e-03
5.53124701e-03
5.52177905e-03
5.51211608e-03
5.50129861e-03
5.49037701e-03
5.47965448e-03
5.46904731e-03
5.45750469e-03
5.44559991e-03
5.43392492e-03
5.42311363e-03
5.41314565e-03
5.40153305e-03
5.38904750e-03
5.37755781e-03
5.36713088e-03
5.35641442e-03
5.34571585e-03
5.33404424e-03
5.32217895e-03
5.31151182e-03
5.30188478e-03
5.29098319e-03
5.28018087e-03
5.27024196e-03
5.26145301e-03
5.25329710e-03
5.24526080e-03
5.23709865e-03
5.22860264e-03
5.21752138e-03
5.20548781e-03
5.19500769e-03
5.18672146e-03
5.17903915e-03
5.16985741e-03
5.15956587e-03
5.14876239e-03
5.13849605e-03
5.12802443e-03
5.11827874e-03
5.10954071e-03
5.10116038e-03
5.09102185e-03
5.08056478e-03
5.07107259e-03
5.06283300e-03
5.05508763e-03
5.04731694e-03
5.03929840e-03
5.03084740e-03
5.02233189e-03
5.01304851e-03
5.00325047e-03
4.99357596e-03
4.98352507e-03
4.97415721e-03
4.96581235e-03
4.95731703e-03
4.94858530e-03
4.94008369e-03
4.93182079e-03
4.92255451e-03
4.91341595e-03
4.90520972e-03
4.89669940e-03
4.88724584e-03
4.87703962e-03
4.86623112e-03
4.85557849e-03
4.84621261e-03
4.83645586e-03
4.82574444e-03
4.81579088e-03
4.80736817e-03
4.79920385e-03
4.78903935e-03
4.77809261e-03
4.76803535e-03
4.75968725e-03
4.75177204e-03
4.74270912e-03
4.73252107e-03
4.72120023e-03
4.71074846e-03
4.70083330e-03
4.69206419e-03
4.68397019e-03
4.67620031e-03
4.66716069e-03
4.65679564e-03
4.64691608e-03
4.63845885e-03
4.63127489e-03
4.62452231e-03
4.61704018e-03
4.60894231e-03
4.60061437e-03
4.59169788e-03
4.58317991e-03
4.57558828e-03
4.56879234e-03
4.56144607e-03
4.55330700e-03
4.54525175e-03
4.53701757e-03
4.52745883e-03
4.51757244e-03
4.50875372e-03
4.50149414e-03
4.49486978e-03
4.48781665e-03
4.47838520e-03
4.46865903e-03
4.45782573e-03
4.44666076e-03
4.43688976e-03
4.42847694e-03
4.42125704e-03
4.41452065e-03
4.40758301e-03
4.40026694e-03
4.39266309e-03
4.38529819e-03
4.37839102e-03
4.37175041e-03
4.36486932e-03
4.35691097e-03
4.34872375e-03
4.34122281e-03
4.33444156e-03
4.32796747e-03
4.31974950e-03
4.31127087e-03
4.30363078e-03
4.29698474e-03
4.29084036e-03
4.28466408e-03
4.27817484e-03
4.27133842e-03
4.26452034e-03
4.25790175e-03
4.25147783e-03
4.24513618e-03
4.23877011e-03
4.23238095e-03
4.22595384e-03
4.21766964e-03
4.20905658e-03
4.20147799e-03
4.19309035e-03
4.18479950e-03
4.17754637e-03
4.17126433e-03
4.16529447e-03
4.15914821e-03
4.15264788e-03
4.14598097e-03
4.13945084e-03
4.13311992e-03
4.12700130e-03
4.12082044e-03
4.11462919e-03
4.10824321e-03
4.10164939e-03
4.09505146e-03
4.08859350e-03
4.08216344e-03
4.07517584e-03
4.06705561e-03
4.05934689e-03
4.05282644e-03
4.04721125e-03
4.04178654e-03
4.03581108e-03
4.02906127e-03
4.02207322e-03
4.01549849e-03
4.00921422e-03
4.00309239e-03
3.99697339e-03
3.99094381e-03
3.98507750e-03
3.97937936e-03
3.97367281e-03
3.96770305e-03
3.96170375e-03
3.95574727e-03
3.94991589e-03
3.94394837e-03
3.93795740e-03
3.93186303e-03
3.92586834e-03
3.92007646e-03
3.91434673e-03
3.90846688e-03
3.90259177e-03
3.89689240e-03
3.89089662e-03
3.88386165e-03
3.87664116e-03
3.86996487e-03
3.86392811e-03
3.85835012e-03
3.85289441e-03
3.84702687e-03
3.84075879e-03
3.83450701e-03
3.82859788e-03
3.82302008e-03
3.81764484e-03
3.81224696e-03
3.80663140e-03
3.80082663e-03
3.79481496e-03
3.78894250e-03
3.78339216e-03
3.77810878e-03
3.77291794e-03
3.76771014e-03
3.76228392e-03
3.75645370e-03
3.75066003e-03
3.74510638e-03
3.73852914e-03
3.73098887e-03
3.72395884e-03
3.71812154e-03
3.71312757e-03
3.70826610e-03
3.70299891e-03
3.69732831e-03
3.69139849e-03
3.68547493e-03
3.67990985e-03
3.67463535e-03
3.66913155e-03
3.66354034e-03
3.65811646e-03
3.65287479e-03
3.64775011e-03
3.64256346e-03
3.63735817e-03
3.63213836e-03
3.62679492e-03
3.62144884e-03
3.61623107e-03
3.61099164e-03
3.60565512e-03
3.60033688e-03
3.59505606e-03
3.58969967e-03
3.58409061e-03
3.57858427e-03
3.57337902e-03
3.56844603e-03
3.56360704e-03
3.55850252e-03
3.55300923e-03
3.54746525e-03
3.54194562e-03
3.53655523e-03
3.53139413e-03
3.52628447e-03
3.52104728e-03
3.51579374e-03
3.51056823e-03
3.50535283e-03
3.50014550e-03
3.49505544e-03
3.48987580e-03
3.48461016e-03
3.47939845e-03
3.47430737e-03
3.46923033e-03
3.46387370e-03
3.45831414e-03
3.45252001e-03
3.44657022e-03
3.44100755e-03
3.43562046e-03
3.43041075e-03
3.42520201e-03
3.41979054e-03
3.41424386e-03
3.40895017e-03
3.40367831e-03
3.39826517e-03
3.39298824e-03
3.38790741e-03
3.38296904e-03
3.37811750e-03
3.37330605e-03
3.36791200e-03
3.36238839e-03
3.35718962e-03
3.35241380e-03
3.34788396e-03
3.34333807e-03
3.33869065e-03
3.33394725e-03
3.32916091e-03
3.32352743e-03
3.31748056e-03
3.31179750e-03
3.30678355e-03
3.30223235e-03
3.29781928e-03
3.29317855e-03
3.28834942e-03
3.28352057e-03
3.27858712e-03
3.27367570e-03
3.26874951e-03
3.26390059e-03
3.25905885e-03
3.25428692e-03
3.24964197e-03
3.24507067e-03
3.24044827e-03
3.23557676e-03
3.23063429e-03
3.22583063e-03
3.22129917e-03
3.21684563e-03
3.21208845e-03
3.20729883e-03
3.20268711e-03
3.19822322e-03
3.19381703e-03
3.18933529e-03
3.18471553e-03
3.18003927e-03
3.17515661e-03
3.17037178e-03
3.16538704e-03
3.16051373e-03
3.15594238e-03
3.15164502e-03
3.14730689e-03
3.14240734e-03
3.13745130e-03
3.13277424e-03
3.12842928e-03
3.12396165e-03
3.11937128e-03
3.11485236e-03
3.11035115e-03
3.10587585e-03
3.10145065e-03
3.09714065e-03
3.09280454e-03
3.08848954e-03
3.08419571e-03
3.07970360e-03
3.07503779e-03
3.07045628e-03
3.06612016e-03
3.06186852e-03
3.05765643e-03
3.05336472e-03
3.04905026e-03
3.04437507e-03
3.03952278e-03
3.03486485e-03
3.03024357e-03
3.02574392e-03
3.02146753e-03
3.01732027e-03
3.01316192e-03
3.00899406e-03
3.00472296e-03
3.00045852e-03
2.99624720e-03
2.99203967e-03
2.98784636e-03
2.98366537e-03
2.97949740e-03
2.97520853e-03
2.97095402e-03
2.96685389e-03
2.96289231e-03
2.95901481e-03
2.95514715e-03
2.95126026e-03
2.94734028e-03
2.94339726e-03
2.93944958e-03
2.93554067e-03
2.93160197e-03
2.92759311e-03
2.92361801e-03
2.91972126e-03
2.91579266e-03
2.91178996e-03
2.90758559e-03
2.90334306e-03
2.89926540e-03
2.89516060e-03
2.89105830e-03
2.88699742e-03
2.88305552e-03
2.87915176e-03
2.87496235e-03
2.87076524e-03
2.86674759e-03
2.86283181e-03
2.85833014e-03
2.85356917e-03
2.84866327e-03
2.84380841e-03
2.83938080e-03
2.83525966e-03
2.83134396e-03
2.82751413e-03
2.82361829e-03
2.81962816e-03
2.81565957e-03
2.81178311e-03
2.80795645e-03
2.80414350e-03
2.80036039e-03
2.79661509e-03
2.79264915e-03
2.78834878e-03
2.78391438e-03
2.77978123e-03
2.77603389e-03
2.77250782e-03
2.76891534e-03
2.76504478e-03
2.76109243e-03
2.75725928e-03
2.75358253e-03
2.74998679e-03
2.74639936e-03
2.74279710e-03
2.73920252e-03
2.73534267e-03
2.73133696e-03
2.72743734e-03
2.72356984e-03
2.71970891e-03
2.71591128e-03
2.71218564e-03
2.70853435e-03
2.70494921e-03
2.70140075e-03
2.69781402e-03
2.69413576e-03
2.69012178e-03
2.68591686e-03
2.68187007e-03
2.67796789e-03
2.67428582e-03
2.67077308e-03
2.66723105e-03
2.66356236e-03
2.65988064e-03
2.65624005e-03
2.65260923e-03
2.64891914e-03
2.64515611e-03
2.64148919e-03
2.63796802e-03
2.63456405e-03
2.63120286e-03
2.62744576e-03
2.62359344e-03
2.61977513e-03
2.61577030e-03
2.61165669e-03
2.60775255e-03
2.60414995e-03
2.60073685e-03
2.59736763e-03
2.59393271e-03
2.59046191e-03
2.58702736e-03
2.58366026e-03
2.58032935e-03
2.57689352e-03
2.57324984e-03
2.56955388e-03
2.56565864e-03
2.56181616e-03
2.55823239e-03
2.55474753e-03
2.55120230e-03
2.54760111e-03
2.54389843e-03
2.54023833e-03
2.53675858e-03
2.53345456e-03
2.53021644e-03
2.52681499e-03
2.52327680e-03
2.51973846e-03
2.51630134e-03
2.51289943e-03
2.50948658e-03
2.50613586e-03
2.50248397e-03
2.49861793e-03
2.49487507e-03
2.49132941e-03
2.48796243e-03
2.48470786e-03
2.48147219e-03
2.47819124e-03
2.47455994e-03
2.47078834e-03
2.46718334e-03
2.46346900e-03
2.45976645e-03
2.45624043e-03
2.45284690e-03
2.44945793e-03
2.44605258e-03
2.44261530e-03
2.43925951e-03
2.43596712e-03
2.43272844e-03
2.42952766e-03
2.42624876e-03
2.42296363e-03
2.41974803e-03
2.41658489e-03
2.41341596e-03
2.41027796e-03
2.40718001e-03
2.40408857e-03
2.40098043e-03
2.39776074e-03
2.39406931e-03
2.39040779e-03
2.38705021e-03
2.38395992e-03
2.38096245e-03
2.37776333e-03
2.37430195e-03
2.37083212e-03
2.36756181e-03
2.36450943e-03
2.36142133e-03
2.35827623e-03
2.35491092e-03
2.35152506e-03
2.34825418e-03
2.34513452e-03
2.34205822e-03
2.33894751e-03
2.33584562e-03
2.33280810e-03
2.32980776e-03
2.32679890e-03
2.32378705e-03
2.32075750e-03
2.31774092e-03
2.31473435e-03
2.31176373e-03
2.30874647e-03
2.30566358e-03
2.30251571e-03
2.29944306e-03
2.29648193e-03
2.29337516e-03
2.29009218e-03
2.28682697e-03
2.28362159e-03
2.28028260e-03
2.27704347e-03
2.27394276e-03
2.27095312e-03
2.26781047e-03
2.26421236e-03
2.26054788e-03
2.25723753e-03
2.25432475e-03
2.25154996e-03
2.24864733e-03
2.24542255e-03
2.24204756e-03
2.23881897e-03
2.23582467e-03
2.23298708e-03
2.22989136e-03
2.22664151e-03
2.22345015e-03
2.22044674e-03
2.21757083e-03
2.21462752e-03
2.21159528e-03
2.20856056e-03
2.20562957e-03
2.20278670e-03
2.19997244e-03
2.19691774e-03
2.19373812e-03
2.19056384e-03
2.18757542e-03
2.18477061e-03
2.18204697e-03
2.17920861e-03
2.17619995e-03
2.17318906e-03
2.17027720e-03
2.16744226e-03
2.16463233e-03
2.16183676e-03
2.15906787e-03
2.15633097e-03
2.15361955e-03
2.15091290e-03
2.14817072e-03
2.14542792e-03
2.14268145e-03
2.13989952e-03
2.13714262e-03
2.13443794e-03
2.13177377e-03
2.12897518e-03
2.12609609e-03
2.12326170e-03
2.12052635e-03
2.11785367e-03
2.11520968e-03
2.11240647e-03
2.10950300e-03
2.10663458e-03
2.10377583e-03
2.10078566e-03
2.09782935e-03
2.09483510e-03
2.09172348e-03
2.08874567e-03
2.08597973e-03
2.08326525e-03
2.08055695e-03
2.07783776e-03
2.07511828e-03
2.07242160e-03
2.06974805e-03
2.06709809e-03
2.06444575e-03
2.06177590e-03
2.05912499e-03
2.05631388e-03
2.05350499e-03
2.05081012e-03
2.04813828e-03
2.04544432e-03
2.04273790e-03
2.04004973e-03
2.03743306e-03
2.03488732e-03
2.03237426e-03
2.02978063e-03
2.02698623e-03
2.02419971e-03
2.02154411e-03
2.01890971e-03
2.01584968e-03
2.01271280e-03
2.00982644e-03
2.00723426e-03
2.00479093e-03
2.00235728e-03
1.99988045e-03
1.99729311e-03
1.99463246e-03
1.99201396e-03
1.98947771e-03
1.98686650e-03
1.98407952e-03
1.98126558e-03
1.97851732e-03
1.97574709e-03
1.97306770e-03
1.97052218e-03
1.96806955e-03
1.96564394e-03
1.96315187e-03
1.96061094e-03
1.95806012e-03
1.95554608e-03
1.95304185e-03
1.95055235e-03
1.94809304e-03
1.94566708e-03
1.94317996e-03
1.94063562e-03
1.93808907e-03
1.93560064e-03
1.93313008e-03
1.93056685e-03
1.92800813e-03
1.92539804e-03
1.92277686e-03
1.92024689e-03
1.91781056e-03
1.91542580e-03
1.91296460e-03
1.91044163e-03
1.90795701e-03
1.90554460e-03
1.90317958e-03
1.90083497e-03
1.89846247e-03
1.89604489e-03
1.89322554e-03
1.88981401e-03
1.88641845e-03
1.88344834e-03
1.88094951e-03
1.87868674e-03
1.87637647e-03
1.87396785e-03
1.87152266e-03
1.86910656e-03
1.86669400e-03
1.86396373e-03
1.86122064e-03
1.85826732e-03
1.85506053e-03
1.85198102e-03
1.84930582e-03
1.84695701e-03
1.84473127e-03
1.84247299e-03
1.84014885e-03
1.83772753e-03
1.83525836e-03
1.83282761e-03
1.83045467e-03
1.82795473e-03
1.82543269e-03
1.82301349e-03
1.82071977e-03
1.81848196e-03
1.81589397e-03
1.81318640e-03
1.81061949e-03
1.80828094e-03
1.80596848e-03
1.80361633e-03
1.80124950e-03
1.79892070e-03
1.79665121e-03
1.79434285e-03
1.79187147e-03
1.78935291e-03
1.78693597e-03
1.78466817e-03
1.78246860e-03
1.78028847e-03
1.77803357e-03
1.77548169e-03
1.77286412e-03
1.77041430e-03
1.76818245e-03
1.76607890e-03
1.76398753e-03
1.76176048e-03
1.75942945e-03
1.75711131e-03
1.75486379e-03
1.75267982e-03
1.75052952e-03
1.74838711e-03
1.74624179e-03
1.74408551e-03
1.74174025e-03
1.73932402e-03
1.73688719e-03
1.73457207e-03
1.73237928e-03
1.73025694e-03
1.72813473e-03
1.72597695e-03
1.72381025e-03
1.72165853e-03
1.71952104e-03
1.71738817e-03
1.71526693e-03
1.71315613e-03
1.71105245e-03
1.70893295e-03
1.70680015e-03
1.70445399e-03
1.70207334e-03
1.69981297e-03
1.69768419e-03
1.69543697e-03
1.69312536e-03
1.69088042e-03
1.68865253e-03
1.68632912e-03
1.68404671e-03
1.68187818e-03
1.67977225e-03
1.67746644e-03
1.67511257e-03
1.67286405e-03
1.67074701e-03
1.66870129e-03
1.66666456e-03
1.66457495e-03
1.66245974e-03
1.66037990e-03
1.65835531e-03
1.65635103e-03
1.65432383e-03
1.65228567e-03
1.65002063e-03
1.64759734e-03
1.64528207e-03
1.64317406e-03
1.64120979e-03
1.63927531e-03
1.63705928e-03
1.63466252e-03
1.63235742e-03
1.63019970e-03
1.62815148e-03
1.62613402e-03
1.62400788e-03
1.62152808e-03
1.61906759e-03
1.61683117e-03
1.61476390e-03
1.61264373e-03
1.61045557e-03
1.60829161e-03
1.60622594e-03
1.60425150e-03
1.60230441e-03
1.60032913e-03
1.59833092e-03
1.59633532e-03
1.59435317e-03
1.59239280e-03
1.59044672e-03
1.58840461e-03
1.58629213e-03
1.58409188e-03
1.58184920e-03
1.57951664e-03
1.57700076e-03
1.57459023e-03
1.57244356e-03
1.57050678e-03
1.56858832e-03
1.56655067e-03
1.56446774e-03
1.56243867e-03
1.56048525e-03
1.55856628e-03
1.55664752e-03
1.55471087e-03
1.55264864e-03
1.55050596e-03
1.54836364e-03
1.54633243e-03
1.54428137e-03
1.54210589e-03
1.53997266e-03
1.53797964e-03
1.53592055e-03
1.53383019e-03
1.53180362e-03
1.52988415e-03
1.52804482e-03
1.52620315e-03
1.52430988e-03
1.52239272e-03
1.52045976e-03
1.51852085e-03
1.51652986e-03
1.51435901e-03
1.51214246e-03
1.51006063e-03
1.50815546e-03
1.50635958e-03
1.50457471e-03
1.50272772e-03
1.50077112e-03
1.49882225e-03
1.49694095e-03
1.49510790e-03
1.49329826e-03
1.49144585e-03
1.48958597e-03
1.48774973e-03
1.48586615e-03
1.48399003e-03
1.48215427e-03
1.48035645e-03
1.47857518e-03
1.47679927e-03
1.47502703e-03
1.47326035e-03
1.47149987e-03
1.46948115e-03
1.46714253e-03
1.46487021e-03
1.46287267e-03
1.46111980e-03
1.45945718e-03
1.45772406e-03
1.45588655e-03
1.45402495e-03
1.45218940e-03
1.45040134e-03
1.44864606e-03
1.44690334e-03
1.44516605e-03
1.44335550e-03
1.44143183e-03
1.43953586e-03
1.43772221e-03
1.43597393e-03
1.43425097e-03
1.43250184e-03
1.43062899e-03
1.42843244e-03
1.42614768e-03
1.42407001e-03
1.42224496e-03
1.42056398e-03
1.41890446e-03
1.41721209e-03
1.41549419e-03
1.41376942e-03
1.41204237e-03
1.41029472e-03
1.40850369e-03
1.40673783e-03
1.40502569e-03
1.40308405e-03
1.40110332e-03
1.39918298e-03
1.39726051e-03
1.39540383e-03
1.39363801e-03
1.39194762e-03
1.39029769e-03
1.38864112e-03
1.38692800e-03
1.38508235e-03
1.38314915e-03
1.38128068e-03
1.37953195e-03
1.37785740e-03
1.37619652e-03
1.37451576e-03
1.37281691e-03
1.37112699e-03
1.36946857e-03
1.36783878e-03
1.36621998e-03
1.36458650e-03
1.36294447e-03
1.36128968e-03
1.35963481e-03
1.35799538e-03
1.35637360e-03
1.35476087e-03
1.35315337e-03
1.35154041e-03
1.34990947e-03
1.34825729e-03
1.34652914e-03
1.34480731e-03
1.34314201e-03
1.34153128e-03
1.33992976e-03
1.33831711e-03
1.33669237e-03
1.33503893e-03
1.33339843e-03
1.33179282e-03
1.33021685e-03
1.32861532e-03
1.32698664e-03
1.32536961e-03
1.32377789e-03
1.32220212e-03
1.32058608e-03
1.31893479e-03
1.31728185e-03
1.31567464e-03
1.31411735e-03
1.31258491e-03
1.31105244e-03
1.30949259e-03
1.30790761e-03
1.30628782e-03
1.30468232e-03
1.30311387e-03
1.30154541e-03
1.29988927e-03
1.29810002e-03
1.29625016e-03
1.29451641e-03
1.29293284e-03
1.29142055e-03
1.28990601e-03
1.28835932e-03
1.28679945e-03
1.28525636e-03
1.28373631e-03
1.28222700e-03
1.28069176e-03
1.27912119e-03
1.27755180e-03
1.27600818e-03
1.27447692e-03
1.27295117e-03
1.27143821e-03
1.26992653e-03
1.26841648e-03
1.26691719e-03
1.26542866e-03
1.26391709e-03
1.26238826e-03
1.26086789e-03
1.25936477e-03
1.25787615e-03
1.25639384e-03
1.25491096e-03
1.25342626e-03
1.25194476e-03
1.25046545e-03
1.24899231e-03
1.24750836e-03
1.24596077e-03
1.24438584e-03
1.24285046e-03
1.24137195e-03
1.23992851e-03
1.23848314e-03
1.23701831e-03
1.23554739e-03
1.23406506e-03
1.23258747e-03
1.23111191e-03
1.22964975e-03
1.22820352e-03
1.22676693e-03
1.22533388e-03
1.22390144e-03
1.22247006e-03
1.22104227e-03
1.21961956e-03
1.21819591e-03
1.21677097e-03
1.21534877e-03
1.21391750e-03
1.21246651e-03
1.21102005e-03
1.20958557e-03
1.20816861e-03
1.20675758e-03
1.20534883e-03
1.20394402e-03
1.20253543e-03
1.20112150e-03
1.19971459e-03
1.19831949e-03
1.19693063e-03
1.19552826e-03
1.19401586e-03
1.19249717e-03
1.19101382e-03
1.18949241e-03
1.18799522e-03
1.18654611e-03
1.18510055e-03
1.18367152e-03
1.18226663e-03
1.18088580e-03
1.17941741e-03
1.17792409e-03
1.17647200e-03
1.17507607e-03
1.17371230e-03
1.17226028e-03
1.17075441e-03
1.16928780e-03
1.16788899e-03
1.16653636e-03
1.16515490e-03
1.16373719e-03
1.16230298e-03
1.16080788e-03
1.15933321e-03
1.15791793e-03
1.15630591e-03
1.15466905e-03
1.15311353e-03
1.15166830e-03
1.15029816e-03
1.14895587e-03
1.14760841e-03
1.14625819e-03
1.14491540e-03
1.14357870e-03
1.14224038e-03
1.14088594e-03
1.13951898e-03
1.13815937e-03
1.13681824e-03
1.13549452e-03
1.13418103e-03
1.13287139e-03
1.13156249e-03
1.13025491e-03
1.12894936e-03
1.12764337e-03
1.12630502e-03
1.12490505e-03
1.12349679e-03
1.12213361e-03
1.12081758e-03
1.11952309e-03
1.11822968e-03
1.11693461e-03
1.11564440e-03
1.11436299e-03
1.11308531e-03
1.11180754e-03
1.11052729e-03
1.10924472e-03
1.10796064e-03
1.10667734e-03
1.10539786e-03
1.10412304e-03
1.10283933e-03
1.10155705e-03
1.10028352e-03
1.09902036e-03
1.09775547e-03
1.09648042e-03
1.09520689e-03
1.09393991e-03
1.09268067e-03
1.09142281e-03
1.09016289e-03
1.08885881e-03
1.08747906e-03
1.08608598e-03
1.08473878e-03
1.08345492e-03
1.08220792e-03
1.08090782e-03
1.07959341e-03
1.07830754e-03
1.07705858e-03
1.07582984e-03
1.07460201e-03
1.07336807e-03
1.07213186e-03
1.07090028e-03
1.06967469e-03
1.06845114e-03
1.06722494e-03
1.06595968e-03
1.06462872e-03
1.06331242e-03
1.06189018e-03
1.06045930e-03
1.05911567e-03
1.05786251e-03
1.05657318e-03
1.05509637e-03
1.05362024e-03
1.05226017e-03
1.05102227e-03
1.04983974e-03
1.04865251e-03
1.04744318e-03
1.04622303e-03
1.04500633e-03
1.04379648e-03
1.04258884e-03
1.04137978e-03
1.04017017e-03
1.03896401e-03
1.03776509e-03
1.03656438e-03
1.03534648e-03
1.03413031e-03
1.03293174e-03
1.03140025e-03
1.02942987e-03
1.02749517e-03
1.02582758e-03
1.02441770e-03
1.02314399e-03
1.02190634e-03
1.02067065e-03
1.01944726e-03
1.01824987e-03
1.01707255e-03
1.01575751e-03
1.01429007e-03
1.01286239e-03
1.01155730e-03
1.01028511e-03
1.00884884e-03
1.00741126e-03
1.00609221e-03
1.00488360e-03
1.00363295e-03
1.00235841e-03
1.00111649e-03
9.99928379e-04
9.98719733e-04
9.97380550e-04
9.96036914e-04
9.94768193e-04
9.93573087e-04
9.92411429e-04
9.91253680e-04
9.89811653e-04
9.88223035e-04
9.86779136e-04
9.85554870e-04
9.84451874e-04
9.83349968e-04
9.82193415e-04
9.81002221e-04
9.79817154e-04
9.78659075e-04
9.77520432e-04
9.76378513e-04
9.75230319e-04
9.74085219e-04
9.72948306e-04
9.71802648e-04
9.70506236e-04
9.68758009e-04
9.67050442e-04
9.65646894e-04
9.64480297e-04
9.63398196e-04
9.62290187e-04
9.61146581e-04
9.60003155e-04
9.58880964e-04
9.57770651e-04
9.56654296e-04
9.55525737e-04
9.54391950e-04
9.53263287e-04
9.52126050e-04
9.50975141e-04
9.49837469e-04
9.48724562e-04
9.47631747e-04
9.46538544e-04
9.45431144e-04
9.44324948e-04
9.43229942e-04
9.42145642e-04
9.41058727e-04
9.39909137e-04
9.38746460e-04
9.37615290e-04
9.36523724e-04
9.35453487e-04
9.34385614e-04
9.33313772e-04
9.32241233e-04
9.31167543e-04
9.30085688e-04
9.29006756e-04
9.27935808e-04
9.26870654e-04
9.25809034e-04
9.24749865e-04
9.23692786e-04
9.22630597e-04
9.21568456e-04
9.20512066e-04
9.19462048e-04
9.18411207e-04
9.17360217e-04
9.16311837e-04
9.15260942e-04
9.14211468e-04
9.13165657e-04
9.12123521e-04
9.11084299e-04
9.10038906e-04
9.08860470e-04
9.07596939e-04
9.06391889e-04
9.05295045e-04
9.04264473e-04
9.03237540e-04
9.02191107e-04
9.01137219e-04
9.00095830e-04
8.99072396e-04
8.98037962e-04
8.96988605e-04
8.95933208e-04
8.94885206e-04
8.93784044e-04
8.92646250e-04
8.91540557e-04
8.90489653e-04
8.89472863e-04
8.88464614e-04
8.87449805e-04
8.86426442e-04
8.85408885e-04
8.84402539e-04
8.83402505e-04
8.82400593e-04
8.81393393e-04
8.80382988e-04
8.79373979e-04
8.78369637e-04
8.77370937e-04
8.76376472e-04
8.75384441e-04
8.74394953e-04
8.73408179e-04
8.72422637e-04
8.71437494e-04
8.70452677e-04
8.69468236e-04
8.68483757e-04
8.67498613e-04
8.66467427e-04
8.65349354e-04
8.64250403e-04
8.63222472e-04
8.62246281e-04
8.61282297e-04
8.60305363e-04
8.59314093e-04
8.58306078e-04
8.57307780e-04
8.56328239e-04
8.55359219e-04
8.54392691e-04
8.53424583e-04
8.52455421e-04
8.51487286e-04
8.50520232e-04
8.49507181e-04
8.48446772e-04
8.47407971e-04
8.46421437e-04
8.45475398e-04
8.44541793e-04
8.43525343e-04
8.42414140e-04
8.41328923e-04
8.40297195e-04
8.39241153e-04
8.38204473e-04
8.37209354e-04
8.36248732e-04
8.35302934e-04
8.34357578e-04
8.33409884e-04
8.32459371e-04
8.31505752e-04
8.30556073e-04
8.29597882e-04
8.28633726e-04
8.27676248e-04
8.26730517e-04
8.25794652e-04
8.24864668e-04
8.23938012e-04
8.23013835e-04
8.22091696e-04
8.21129591e-04
8.20156826e-04
8.19203359e-04
8.18183825e-04
8.17148591e-04
8.16153867e-04
8.15208275e-04
8.14289321e-04
8.13374748e-04
8.12457696e-04
8.11501211e-04
8.10408166e-04
8.09322779e-04
8.08329749e-04
8.07419629e-04
8.06539502e-04
8.05646732e-04
8.04730515e-04
8.03802028e-04
8.02874870e-04
8.01841942e-04
8.00793661e-04
7.99576044e-04
7.98137175e-04
7.96819697e-04
7.95727094e-04
7.94803437e-04
7.93928322e-04
7.93028220e-04
7.92087997e-04
7.91125815e-04
7.89946639e-04
7.88766509e-04
7.87713641e-04
7.86779775e-04
7.85890582e-04
7.84990181e-04
7.84072199e-04
7.83154184e-04
7.82251944e-04
7.81327478e-04
7.80320901e-04
7.79316760e-04
7.78344174e-04
7.77412366e-04
7.76510275e-04
7.75620745e-04
7.74730668e-04
7.73835996e-04
7.72937609e-04
7.72042361e-04
7.71133903e-04
7.70165582e-04
7.69210825e-04
7.68307975e-04
7.67446403e-04
7.66594160e-04
7.65727552e-04
7.64841141e-04
7.63953396e-04
7.63078208e-04
7.62215030e-04
7.61357114e-04
7.60500167e-04
7.59643611e-04
7.58782731e-04
7.57909882e-04
7.57039413e-04
7.56176258e-04
7.55321690e-04
7.54473495e-04
7.53628309e-04
7.52783870e-04
7.51938787e-04
7.51065115e-04
7.50176963e-04
7.49298537e-04
7.48440107e-04
7.47596360e-04
7.46758161e-04
7.45920332e-04
7.45084342e-04
7.44252905e-04
7.43425598e-04
7.42599202e-04
7.41770139e-04
7.40938630e-04
7.40104975e-04
7.39265475e-04
7.38416953e-04
7.37563226e-04
7.36704683e-04
7.35851660e-04
7.34990276e-04
7.34131565e-04
7.33291697e-04
7.32461639e-04
7.31638391e-04
7.30817785e-04
7.29994981e-04
7.29172588e-04
7.28354111e-04
7.27539696e-04
7.26726306e-04
7.25915426e-04
7.25107182e-04
7.24199481e-04
7.23216096e-04
7.22275380e-04
7.21417358e-04
7.20611420e-04
7.19815426e-04
7.19010252e-04
7.18200874e-04
7.17397942e-04
7.16588131e-04
7.15777507e-04
7.14970744e-04
7.14167573e-04
7.13365256e-04
7.12562376e-04
7.11726725e-04
7.10873625e-04
7.10037076e-04
7.09226722e-04
7.08437763e-04
7.07657477e-04
7.06876730e-04
7.06092166e-04
7.05304515e-04
7.04515793e-04
7.03728033e-04
7.02934356e-04
7.02140694e-04
7.01353532e-04
7.00572353e-04
6.99566547e-04
6.98521681e-04
6.97589862e-04
6.96786727e-04
6.96042864e-04
6.95292188e-04
6.94515065e-04
6.93726245e-04
6.92943720e-04
6.92171423e-04
6.91398695e-04
6.90621797e-04
6.89842756e-04
6.89065336e-04
6.88291199e-04
6.87521218e-04
6.86752249e-04
6.85980046e-04
6.85211194e-04
6.84449849e-04
6.83626421e-04
6.82722335e-04
6.81844064e-04
6.81036495e-04
6.80279064e-04
6.79530410e-04
6.78768380e-04
6.77997364e-04
6.77231916e-04
6.76480776e-04
6.75742253e-04
6.75008520e-04
6.74272672e-04
6.73531470e-04
6.72784719e-04
6.72030698e-04
6.71264087e-04
6.70489602e-04
6.69714398e-04
6.68933158e-04
6.68165211e-04
6.67393227e-04
6.66624746e-04
6.65873566e-04
6.65139026e-04
6.64332696e-04
6.63261828e-04
6.62195110e-04
6.61296467e-04
6.60554237e-04
6.59868605e-04
6.59160932e-04
6.58415056e-04
6.57653845e-04
6.56900427e-04
6.56160450e-04
6.55427611e-04
6.54693280e-04
6.53958491e-04
6.53227148e-04
6.52501217e-04
6.51779048e-04
6.51057786e-04
6.50335524e-04
6.49609265e-04
6.48881927e-04
6.48158848e-04
6.47441351e-04
6.46725656e-04
6.46008734e-04
6.45291772e-04
6.44576422e-04
6.43863839e-04
6.43154090e-04
6.42445284e-04
6.41737698e-04
6.41031740e-04
6.40327314e-04
6.39622603e-04
6.38917567e-04
6.38213775e-04
6.37511768e-04
6.36802710e-04
6.36082598e-04
6.35356977e-04
6.34637118e-04
6.33850304e-04
6.33065365e-04
6.32324633e-04
6.31625112e-04
6.30940739e-04
6.30251295e-04
6.29551179e-04
6.28844660e-04
6.28142973e-04
6.27440990e-04
6.26735930e-04
6.26034616e-04
6.25339675e-04
6.24649655e-04
6.23961962e-04
6.23275213e-04
6.22589645e-04
6.21906103e-04
6.21225082e-04
6.20546010e-04
6.19867818e-04
6.19189703e-04
6.18345783e-04
6.17426584e-04
6.16583355e-04
6.15852834e-04
6.15185789e-04
6.14523576e-04
6.13844416e-04
6.13158774e-04
6.12481746e-04
6.11815555e-04
6.11150447e-04
6.10479058e-04
6.09800568e-04
6.09119218e-04
6.08439574e-04
6.07763624e-04
6.07090737e-04
6.06419749e-04
6.05751236e-04
6.05086016e-04
6.04424253e-04
6.03765300e-04
6.03108088e-04
6.02434410e-04
6.01751539e-04
6.01073692e-04
6.00408229e-04
5.99752579e-04
5.99100197e-04
5.98445607e-04
5.97787952e-04
5.97129779e-04
5.96473722e-04
5.95820747e-04
5.95169854e-04
5.94520465e-04
5.93872302e-04
5.93225061e-04
5.92578485e-04
5.91932537e-04
5.91287447e-04
5.90643547e-04
5.90001036e-04
5.89359845e-04
5.88716580e-04
5.88067778e-04
5.87419823e-04
5.86776756e-04
5.86128915e-04
5.85473168e-04
5.84818311e-04
5.84102195e-04
5.83298738e-04
5.82524782e-04
5.81783411e-04
5.81085826e-04
5.80429720e-04
5.79795806e-04
5.79166009e-04
5.78525703e-04
5.77874969e-04
5.77166340e-04
5.76262998e-04
5.75369776e-04
5.74551955e-04
5.73820732e-04
5.73054231e-04
5.72258309e-04
5.71511216e-04
5.70837607e-04
5.70209999e-04
5.69587909e-04
5.68950883e-04
5.68301932e-04
5.67653259e-04
5.67007841e-04
5.66370024e-04
5.65739468e-04
5.65111068e-04
5.64473771e-04
5.63826250e-04
5.63185349e-04
5.62558426e-04
5.61905260e-04
5.61072373e-04
5.60151848e-04
5.59324746e-04
5.58627381e-04
5.58020797e-04
5.57434951e-04
5.56827971e-04
5.56197594e-04
5.55560521e-04
5.54930238e-04
5.54309635e-04
5.53694934e-04
5.53082971e-04
5.52472899e-04
5.51864445e-04
5.51257568e-04
5.50543410e-04
5.49772340e-04
5.49053591e-04
5.48419618e-04
5.47837140e-04
5.47260340e-04
5.46666717e-04
5.46058935e-04
5.45448690e-04
5.44842694e-04
5.44239166e-04
5.43633053e-04
5.43028348e-04
5.42428309e-04
5.41833529e-04
5.41242335e-04
5.40652604e-04
5.40048468e-04
5.39389730e-04
5.38734850e-04
5.38118732e-04
5.37537775e-04
5.36968547e-04
5.36392059e-04
5.35804253e-04
5.35211262e-04
5.34619704e-04
5.34032426e-04
5.33448902e-04
5.32867754e-04
5.32288464e-04
5.31711182e-04
5.31135344e-04
5.30559943e-04
5.29984403e-04
5.29408905e-04
5.28833854e-04
5.28259780e-04
5.27687111e-04
5.27115932e-04
5.26546016e-04
5.25974501e-04
5.25388749e-04
5.24799811e-04
5.24114937e-04
5.23407187e-04
5.22757157e-04
5.22176628e-04
5.21630304e-04
5.21060503e-04
5.20409494e-04
5.19729181e-04
5.19090556e-04
5.18508552e-04
5.17957097e-04
5.17406115e-04
5.16843391e-04
5.16272148e-04
5.15701120e-04
5.15134497e-04
5.14569882e-04
5.14005937e-04
5.13443615e-04
5.12884368e-04
5.12328298e-04
5.11774785e-04
5.11222099e-04
5.10668795e-04
5.10115492e-04
5.09562695e-04
5.08998644e-04
5.08425907e-04
5.07858895e-04
5.07303888e-04
5.06758406e-04
5.06216452e-04
5.05673450e-04
5.05128035e-04
5.04580349e-04
5.04032163e-04
5.03484961e-04
5.02929848e-04
5.02355105e-04
5.01784784e-04
5.01231703e-04
5.00691361e-04
5.00155293e-04
4.99617658e-04
4.99077389e-04
4.98536417e-04
4.97996749e-04
4.97459064e-04
4.96923005e-04
4.96388089e-04
4.95853766e-04
4.95319948e-04
4.94787265e-04
4.94255927e-04
4.93725705e-04
4.93196234e-04
4.92665022e-04
4.92132022e-04
4.91600351e-04
4.91070880e-04
4.90543027e-04
4.90016301e-04
4.89490329e-04
4.88965287e-04
4.88441475e-04
4.87918852e-04
4.87397151e-04
4.86875924e-04
4.86353915e-04
4.85829275e-04
4.85305101e-04
4.84783287e-04
4.84263977e-04
4.83745991e-04
4.83228674e-04
4.82711891e-04
4.82195768e-04
4.81680405e-04
4.81165806e-04
4.80651966e-04
4.80138713e-04
4.79608451e-04
4.79076108e-04
4.78551940e-04
4.78035263e-04
4.77524069e-04
4.77014584e-04
4.76504852e-04
4.75995074e-04
4.75486043e-04
4.74978104e-04
4.74471071e-04
4.73964618e-04
4.73458572e-04
4.72953378e-04
4.72449324e-04
4.71946412e-04
4.71444400e-04
4.70879348e-04
4.70163135e-04
4.69464629e-04
4.68874834e-04
4.68376925e-04
4.67907078e-04
4.67419969e-04
4.66909692e-04
4.66386818e-04
4.65797949e-04
4.65211514e-04
4.64666204e-04
4.64158077e-04
4.63664074e-04
4.63167618e-04
4.62666429e-04
4.62165338e-04
4.61667713e-04
4.61170424e-04
4.60601544e-04
4.60023244e-04
4.59483374e-04
4.58986812e-04
4.58500257e-04
4.58005614e-04
4.57503620e-04
4.57001723e-04
4.56504897e-04
4.56012837e-04
4.55522741e-04
4.55032898e-04
4.54542600e-04
4.54053136e-04
4.53566912e-04
4.53084389e-04
4.52604063e-04
4.52123341e-04
4.51641250e-04
4.51158562e-04
4.50676286e-04
4.50190931e-04
4.49701163e-04
4.49213438e-04
4.48730392e-04
4.48250388e-04
4.47773192e-04
4.47297103e-04
4.46821775e-04
4.46347033e-04
4.45872810e-04
4.45399135e-04
4.44926092e-04
4.44453762e-04
4.43982161e-04
4.43511270e-04
4.43040950e-04
4.42571181e-04
4.42102194e-04
4.41634129e-04
4.41166974e-04
4.40700606e-04
4.40234615e-04
4.39768999e-04
4.39303932e-04
4.38839467e-04
4.38375487e-04
4.37907382e-04
4.37363855e-04
4.36814221e-04
4.36304915e-04
4.35836719e-04
4.35384734e-04
4.34928723e-04
4.34392790e-04
4.33808486e-04
4.33261372e-04
4.32777488e-04
4.32331353e-04
4.31887447e-04
4.31429218e-04
4.30960351e-04
4.30491084e-04
4.30026544e-04
4.29565946e-04
4.29107103e-04
4.28649053e-04
4.28192332e-04
4.27734257e-04
4.27270246e-04
4.26807334e-04
4.26348718e-04
4.25895078e-04
4.25444389e-04
4.24994703e-04
4.24545285e-04
4.24094925e-04
4.23641431e-04
4.23188714e-04
4.22738910e-04
4.22291795e-04
4.21842983e-04
4.21390850e-04
4.20940049e-04
4.20492509e-04
4.20047595e-04
4.19603767e-04
4.19160331e-04
4.18717557e-04
4.18275932e-04
4.17834586e-04
4.17394168e-04
4.16954961e-04
4.16516680e-04
4.16078844e-04
4.15641098e-04
4.15203377e-04
4.14765838e-04
4.14328738e-04
4.13892321e-04
4.13456767e-04
4.13022178e-04
4.12588544e-04
4.12155763e-04
4.11723684e-04
4.11292162e-04
4.10861090e-04
4.10430405e-04
4.10000086e-04
4.09570140e-04
4.09140591e-04
4.08711486e-04
4.08282160e-04
4.07852125e-04
4.07422173e-04
4.06993457e-04
4.06562551e-04
4.06131287e-04
4.05702298e-04
4.05275519e-04
4.04850322e-04
4.04426227e-04
4.04002762e-04
4.03579698e-04
4.03157041e-04
4.02734897e-04
4.02313344e-04
4.01892239e-04
4.01471436e-04
4.01051191e-04
4.00631650e-04
4.00212693e-04
3.99794293e-04
3.99375739e-04
3.98957409e-04
3.98539994e-04
3.98123678e-04
3.97708230e-04
3.97293333e-04
3.96875514e-04
3.96456013e-04
3.96038217e-04
3.95623506e-04
3.95211303e-04
3.94800209e-04
3.94389155e-04
3.93977857e-04
3.93566598e-04
3.93155804e-04
3.92745743e-04
3.92319299e-04
3.91832234e-04
3.91347705e-04
3.90902883e-04
3.90494080e-04
3.90098003e-04
3.89696435e-04
3.89286304e-04
3.88873755e-04
3.88464018e-04
3.88057607e-04
3.87652274e-04
3.87246267e-04
3.86839609e-04
3.86433301e-04
3.86028157e-04
3.85624370e-04
3.85221770e-04
3.84820175e-04
3.84419467e-04
3.84019835e-04
3.83621174e-04
3.83223065e-04
3.82825040e-04
3.82426852e-04
3.82028570e-04
3.81630067e-04
3.81231887e-04
3.80834727e-04
3.80438809e-04
3.80043945e-04
3.79642537e-04
3.79232997e-04
3.78826616e-04
3.78428176e-04
3.78035501e-04
3.77644351e-04
3.77252451e-04
3.76860057e-04
3.76468326e-04
3.76077794e-04
3.75688128e-04
3.75298730e-04
3.74909253e-04
3.74519837e-04
3.74130826e-04
3.73742461e-04
3.73354810e-04
3.72967855e-04
3.72581578e-04
3.72195959e-04
3.71810954e-04
3.71426475e-04
3.71042417e-04
3.70658699e-04
3.70275288e-04
3.69892212e-04
3.69509530e-04
3.69127310e-04
3.68745607e-04
3.68364448e-04
3.67983832e-04
3.67603736e-04
3.67224124e-04
3.66844867e-04
3.66465990e-04
3.66087566e-04
3.65709632e-04
3.65332178e-04
3.64955186e-04
3.64578644e-04
3.64202553e-04
3.63826916e-04
3.63451749e-04
3.63077053e-04
3.62702815e-04
3.62329019e-04
3.61955655e-04
3.61582718e-04
3.61210209e-04
3.60838132e-04
3.60466491e-04
3.60095131e-04
3.59723864e-04
3.59352015e-04
3.58980424e-04
3.58609848e-04
3.58240351e-04
3.57871615e-04
3.57503375e-04
3.57135556e-04
3.56768014e-04
3.56344831e-04
3.55874740e-04
3.55429851e-04
3.55033744e-04
3.54671148e-04
3.54314789e-04
3.53948323e-04
3.53572332e-04
3.53197469e-04
3.52829229e-04
3.52465663e-04
3.52102199e-04
3.51736431e-04
3.51368909e-04
3.51001904e-04
3.50636840e-04
3.50270358e-04
3.49900579e-04
3.49532385e-04
3.49169133e-04
3.48810357e-04
3.48453510e-04
3.48096400e-04
3.47670553e-04
3.47070111e-04
3.46486195e-04
3.46024116e-04
3.45666628e-04
3.45343007e-04
3.45001423e-04
3.44633856e-04
3.44257149e-04
3.43886350e-04
3.43523908e-04
3.43164629e-04
3.42804228e-04
3.42442734e-04
3.42082432e-04
3.41724785e-04
3.41369483e-04
3.41015465e-04
3.40662155e-04
3.40309730e-04
3.39958487e-04
3.39608468e-04
3.39259275e-04
3.38910282e-04
3.38561018e-04
3.38211373e-04
3.37861065e-04
3.37510874e-04
3.37161638e-04
3.36813712e-04
3.36467036e-04
3.36121380e-04
3.35776509e-04
3.35432230e-04
3.35088377e-04
3.34744801e-04
3.34401408e-04
3.34058181e-04
3.33715181e-04
3.33372519e-04
3.33030309e-04
3.32688636e-04
3.32347536e-04
3.32006990e-04
3.31666937e-04
3.31327276e-04
3.30987063e-04
3.30646879e-04
3.30307401e-04
3.29968776e-04
3.29630785e-04
3.29293200e-04
3.28955091e-04
3.28616753e-04
3.28279179e-04
3.27942874e-04
3.27607604e-04
3.27272901e-04
3.26937336e-04
3.26600665e-04
3.26264751e-04
3.25930329e-04
3.25595634e-04
3.25261102e-04
3.24927608e-04
3.24595345e-04
3.24263893e-04
3.23932687e-04
3.23601425e-04
3.23270298e-04
3.22939653e-04
3.22609544e-04
3.22279500e-04
3.21949956e-04
3.21621157e-04
3.21293061e-04
3.20965473e-04
3.20477325e-04
3.19963914e-04
3.19528924e-04
3.19182659e-04
3.18876983e-04
3.18566378e-04
3.18237336e-04
3.17899808e-04
3.17565856e-04
3.17238106e-04
3.16911998e-04
3.16583105e-04
3.16251051e-04
3.15884935e-04
3.15495270e-04
3.15122742e-04
3.14780595e-04
3.14458157e-04
3.14136886e-04
3.13795543e-04
3.13452048e-04
3.13120162e-04
3.12800081e-04
3.12483509e-04
3.12163557e-04
3.11838921e-04
3.11512410e-04
3.11187270e-04
3.10864936e-04
3.10545070e-04
3.10226700e-04
3.09909075e-04
3.09591901e-04
3.09275137e-04
3.08958774e-04
3.08642803e-04
3.08327257e-04
3.08012213e-04
3.07697737e-04
3.07383831e-04
3.07070422e-04
3.06757348e-04
3.06444538e-04
3.06131964e-04
3.05819614e-04
3.05507509e-04
3.05195721e-04
3.04884363e-04
3.04573559e-04
3.04263395e-04
3.03953889e-04
3.03644984e-04
3.03336413e-04
3.03028102e-04
3.02720083e-04
3.02412330e-04
3.02103219e-04
3.01793682e-04
3.01485010e-04
3.01177549e-04
3.00870977e-04
3.00564948e-04
3.00259403e-04
2.99954468e-04
2.99650210e-04
2.99346528e-04
2.99043226e-04
2.98740136e-04
2.98437187e-04
2.98134396e-04
2.97831821e-04
2.97529523e-04
2.97227561e-04
2.96925992e-04
2.96624859e-04
2.96324187e-04
2.96023973e-04
2.95724188e-04
2.95424781e-04
2.95125728e-04
2.94827003e-04
2.94528586e-04
2.94230464e-04
2.93932635e-04
2.93635113e-04
2.93337917e-04
2.93041068e-04
2.92744428e-04
2.92447820e-04
2.92151605e-04
2.91856004e-04
2.91560728e-04
2.91265573e-04
2.90970394e-04
2.90675467e-04
2.90381207e-04
2.90087694e-04
2.89794766e-04
2.89499845e-04
2.89185588e-04
2.88870348e-04
2.88566004e-04
2.88272473e-04
2.87983007e-04
2.87691651e-04
2.87398069e-04
2.87104219e-04
2.86811602e-04
2.86520341e-04
2.86229865e-04
2.85939810e-04
2.85650271e-04
2.85361489e-04
2.85073512e-04
2.84786138e-04
2.84499085e-04
2.84212133e-04
2.83925312e-04
2.83638762e-04
2.83352608e-04
2.83065919e-04
2.82778302e-04
2.82491482e-04
2.82206213e-04
2.81921952e-04
2.81638053e-04
2.81354249e-04
2.81070588e-04
2.80787246e-04
2.80504346e-04
2.80221836e-04
2.79939768e-04
2.79658156e-04
2.79376967e-04
2.79096132e-04
2.78815589e-04
2.78535302e-04
2.78255270e-04
2.77975506e-04
2.77696028e-04
2.77416886e-04
2.77138113e-04
2.76859715e-04
2.76581678e-04
2.76303988e-04
2.76026632e-04
2.75749602e-04
2.75472895e-04
2.75196507e-04
2.74920434e-04
2.74644670e-04
2.74347163e-04
2.74038431e-04
2.73740635e-04
2.73460136e-04
2.73189893e-04
2.72920302e-04
2.72646892e-04
2.72370741e-04
2.72094725e-04
2.71820360e-04
2.71547303e-04
2.71274572e-04
2.71001804e-04
2.70729297e-04
2.70457460e-04
2.70185920e-04
2.69913911e-04
2.69642178e-04
2.69370441e-04
2.69099183e-04
2.68828739e-04
2.68559142e-04
2.68290259e-04
2.68021913e-04
2.67753950e-04
2.67485941e-04
2.67217914e-04
2.66950153e-04
2.66682797e-04
2.66415854e-04
2.66149293e-04
2.65883111e-04
2.65617098e-04
2.65350257e-04
2.65083671e-04
2.64817986e-04
2.64553163e-04
2.64288857e-04
2.64024819e-04
2.63761013e-04
2.63497571e-04
2.63234560e-04
2.62971922e-04
2.62709545e-04
2.62447358e-04
2.62185364e-04
2.61923620e-04
2.61662189e-04
2.61401111e-04
2.61140402e-04
2.60880058e-04
2.60620064e-04
2.60359835e-04
2.60099066e-04
2.59838705e-04
2.59579260e-04
2.59320665e-04
2.59062480e-04
2.58804340e-04
2.58546341e-04
2.58288648e-04
2.58031351e-04
2.57774443e-04
2.57517878e-04
2.57261620e-04
2.57005655e-04
2.56749981e-04
2.56494586e-04
2.56238834e-04
2.55983282e-04
2.55728330e-04
2.55474012e-04
2.55220140e-04
2.54966532e-04
2.54712296e-04
2.54457394e-04
2.54203099e-04
2.53949357e-04
2.53696181e-04
2.53443604e-04
2.53191523e-04
2.52939829e-04
2.52688427e-04
2.52437422e-04
2.52186865e-04
2.51935341e-04
2.51683324e-04
2.51432140e-04
2.51182159e-04
2.50932957e-04
2.50684017e-04
2.50435143e-04
2.50186443e-04
2.49938084e-04
2.49690121e-04
2.49442286e-04
2.49192736e-04
2.48943339e-04
2.48695345e-04
2.48448772e-04
2.48202941e-04
2.47957255e-04
2.47711548e-04
2.47465969e-04
2.47220700e-04
2.46975799e-04
2.46731221e-04
2.46486903e-04
2.46242822e-04
2.45998997e-04
2.45755458e-04
2.45512228e-04
2.45269311e-04
2.45026575e-04
2.44784130e-04
2.44542039e-04
2.44300286e-04
2.44058811e-04
2.43817570e-04
2.43576555e-04
2.43335786e-04
2.43095284e-04
2.42855065e-04
2.42615132e-04
2.42375484e-04
2.42136121e-04
2.41896845e-04
2.41656959e-04
2.41417262e-04
2.41178223e-04
2.40939817e-04
2.40701819e-04
2.40464107e-04
2.40226722e-04
2.39989749e-04
2.39753197e-04
2.39516989e-04
2.39281007e-04
2.39045180e-04
2.38809502e-04
2.38574004e-04
2.38338716e-04
2.38103666e-04
2.37868881e-04
2.37634384e-04
2.37400195e-04
2.37166320e-04
2.36932754e-04
2.36699482e-04
2.36466485e-04
2.36233747e-04
2.35992463e-04
2.35696894e-04
2.35396983e-04
2.35127642e-04
2.34888862e-04
2.34590837e-04
2.34185053e-04
2.33800542e-04
2.33503877e-04
2.33278609e-04
2.33073417e-04
2.32852735e-04
2.32612190e-04
2.32364540e-04
2.32120872e-04
2.31883224e-04
2.31648174e-04
2.31412840e-04
2.31177201e-04
2.30942722e-04
2.30710288e-04
2.30479595e-04
2.30249859e-04
2.30000428e-04
2.29730143e-04
2.29468226e-04
2.29226324e-04
2.28998314e-04
2.28773110e-04
2.28544919e-04
2.28314512e-04
2.28084911e-04
2.27857571e-04
2.27631766e-04
2.27406109e-04
2.27179921e-04
2.26953417e-04
2.26727063e-04
2.26501062e-04
2.26275355e-04
2.26049884e-04
2.25824789e-04
2.25600346e-04
2.25376779e-04
2.25148829e-04
2.24870884e-04
2.24590276e-04
2.24338391e-04
2.24115027e-04
2.23902039e-04
2.23683810e-04
2.23456842e-04
2.23226473e-04
2.22998915e-04
2.22776403e-04
2.22557425e-04
2.22339409e-04
2.22120776e-04
2.21901250e-04
2.21681151e-04
2.21460757e-04
2.21240191e-04
2.21019594e-04
2.20799236e-04
2.20579450e-04
2.20360476e-04
2.20142370e-04
2.19925044e-04
2.19708348e-04
2.19492151e-04
2.19276333e-04
2.19060763e-04
2.18845307e-04
2.18629880e-04
2.18414449e-04
2.18199034e-04
2.17983696e-04
2.17768520e-04
2.17553595e-04
2.17338999e-04
2.17124784e-04
2.16910976e-04
2.16697567e-04
2.16484523e-04
2.16271796e-04
2.16059330e-04
2.15847069e-04
2.15634963e-04
2.15422552e-04
2.15207324e-04
2.14989194e-04
2.14772389e-04
2.14558489e-04
2.14346595e-04
2.14135302e-04
2.13924044e-04
2.13713111e-04
2.13502932e-04
2.13293565e-04
2.13084719e-04
2.12876067e-04
2.12667466e-04
2.12458944e-04
2.12250562e-04
2.12042321e-04
2.11834168e-04
2.11626056e-04
2.11417996e-04
2.11210062e-04
2.11002353e-04
2.10794961e-04
2.10587952e-04
2.10381358e-04
2.10175185e-04
2.09969409e-04
2.09763977e-04
2.09558826e-04
2.09353889e-04
2.09149111e-04
2.08944452e-04
2.08739899e-04
2.08498644e-04
2.08195948e-04
2.07906539e-04
2.07667110e-04
2.07467386e-04
2.07278491e-04
2.07081078e-04
2.06873111e-04
2.06661628e-04
2.06452473e-04
2.06246555e-04
2.06041975e-04
2.05837217e-04
2.05630781e-04
2.05423226e-04
2.05217137e-04
2.05013020e-04
2.04810156e-04
2.04608054e-04
2.04406628e-04
2.04206023e-04
2.04006115e-04
2.03806600e-04
2.03607085e-04
2.03407270e-04
2.03207130e-04
2.03006919e-04
2.02807002e-04
2.02607669e-04
2.02409020e-04
2.02210973e-04
2.02013345e-04
2.01815944e-04
2.01618635e-04
2.01421364e-04
2.01224151e-04
2.01027062e-04
2.00830094e-04
2.00633288e-04
2.00436836e-04
2.00240825e-04
2.00045230e-04
1.99849961e-04
1.99654932e-04
1.99460086e-04
1.99265402e-04
1.99070876e-04
1.98876446e-04
1.98680608e-04
1.98484686e-04
1.98289720e-04
1.98095939e-04
1.97901149e-04
1.97706287e-04
1.97512157e-04
1.97318943e-04
1.97098715e-04
1.96846399e-04
1.96604925e-04
1.96392312e-04
1.96200663e-04
1.96014386e-04
1.95824801e-04
1.95631967e-04
1.95438899e-04
1.95246782e-04
1.95054646e-04
1.94861492e-04
1.94667654e-04
1.94474329e-04
1.94282107e-04
1.94091132e-04
1.93900892e-04
1.93710866e-04
1.93520962e-04
1.93331499e-04
1.93142808e-04
1.92954936e-04
1.92767613e-04
1.92580434e-04
1.92393071e-04
1.92205399e-04
1.92017502e-04
1.91829597e-04
1.91641944e-04
1.91454751e-04
1.91268126e-04
1.91082054e-04
1.90896426e-04
1.90711092e-04
1.90522654e-04
1.90333360e-04
1.90145662e-04
1.89960020e-04
1.89775549e-04
1.89591309e-04
1.89406955e-04
1.89222602e-04
1.89038425e-04
1.88854481e-04
1.88670757e-04
1.88487276e-04
1.88304081e-04
1.88121238e-04
1.87938732e-04
1.87756468e-04
1.87574343e-04
1.87392311e-04
1.87210402e-04
1.87028682e-04
1.86847210e-04
1.86666008e-04
1.86485064e-04
1.86304346e-04
1.86123823e-04
1.85943475e-04
1.85763298e-04
1.85583302e-04
1.85403500e-04
1.85223896e-04
1.85044486e-04
1.84865290e-04
1.84686315e-04
1.84507552e-04
1.84328989e-04
1.84150622e-04
1.83972450e-04
1.83794475e-04
1.83616698e-04
1.83439117e-04
1.83261727e-04
1.83084527e-04
1.82907517e-04
1.82730699e-04
1.82554075e-04
1.82377646e-04
1.82201414e-04
1.82025379e-04
1.81849541e-04
1.81673855e-04
1.81498226e-04
1.81310283e-04
1.81061442e-04
1.80812643e-04
1.80601370e-04
1.80425453e-04
1.80262169e-04
1.80093665e-04
1.79916223e-04
1.79735050e-04
1.79555489e-04
1.79378877e-04
1.79203692e-04
1.79028360e-04
1.78852607e-04
1.78677024e-04
1.78502119e-04
1.78327935e-04
1.78154026e-04
1.77980433e-04
1.77807490e-04
1.77635375e-04
1.77463955e-04
1.77292880e-04
1.77121788e-04
1.76950474e-04
1.76778941e-04
1.76604705e-04
1.76428681e-04
1.76251998e-04
1.76076705e-04
1.75903976e-04
1.75733352e-04
1.75563853e-04
1.75394807e-04
1.75225976e-04
1.75057278e-04
1.74888587e-04
1.74719734e-04
1.74550635e-04
1.74381372e-04
1.74212125e-04
1.74043160e-04
1.73874661e-04
1.73706699e-04
1.73537390e-04
1.73366487e-04
1.73196645e-04
1.73028879e-04
1.72862529e-04
1.72696453e-04
1.72530036e-04
1.72363342e-04
1.72196452e-04
1.72029380e-04
1.71862675e-04
1.71696569e-04
1.71531009e-04
1.71365852e-04
1.71200971e-04
1.71033243e-04
1.70864693e-04
1.70697584e-04
1.70532276e-04
1.70367898e-04
1.70203630e-04
1.70039325e-04
1.69875300e-04
1.69711837e-04
1.69548931e-04
1.69386367e-04
1.69223919e-04
1.69060572e-04
1.68883147e-04
1.68700018e-04
1.68523699e-04
1.68356937e-04
1.68195411e-04
1.68034284e-04
1.67868766e-04
1.67701234e-04
1.67535680e-04
1.67373422e-04
1.67200536e-04
1.67020590e-04
1.66845563e-04
1.66679534e-04
1.66519236e-04
1.66359670e-04
1.66198428e-04
1.66036143e-04
1.65874497e-04
1.65714369e-04
1.65555442e-04
1.65396888e-04
1.65238122e-04
1.65079032e-04
1.64919796e-04
1.64760579e-04
1.64601433e-04
1.64442380e-04
1.64283505e-04
1.64124953e-04
1.63966860e-04
1.63809276e-04
1.63652148e-04
1.63495358e-04
1.63338774e-04
1.63182296e-04
1.63025869e-04
1.62869484e-04
1.62713156e-04
1.62556919e-04
1.62400808e-04
1.62244855e-04
1.62089089e-04
1.61933529e-04
1.61778189e-04
1.61623076e-04
1.61468185e-04
1.61313511e-04
1.61159051e-04
1.61004792e-04
1.60850713e-04
1.60696702e-04
1.60542783e-04
1.60389027e-04
1.60235454e-04
1.60082042e-04
1.59928769e-04
1.59775639e-04
1.59622675e-04
1.59469903e-04
1.59317337e-04
1.59164978e-04
1.59012818e-04
1.58860766e-04
1.58708858e-04
1.58557152e-04
1.58405653e-04
1.58254329e-04
1.58103144e-04
1.57952084e-04
1.57801158e-04
1.57650382e-04
1.57499769e-04
1.57349326e-04
1.57199060e-04
1.57048973e-04
1.56899067e-04
1.56749342e-04
1.56599791e-04
1.56450406e-04
1.56301179e-04
1.56152101e-04
1.56003170e-04
1.55854384e-04
1.55705744e-04
1.55557252e-04
1.55408915e-04
1.55260385e-04
1.55110874e-04
1.54961479e-04
1.54812133e-04
1.54663341e-04
1.54515463e-04
1.54368285e-04
1.54221379e-04
1.54074456e-04
1.53927461e-04
1.53780500e-04
1.53633756e-04
1.53487295e-04
1.53341082e-04
1.53195054e-04
1.53049179e-04
1.52903455e-04
1.52757888e-04
1.52612478e-04
1.52467222e-04
1.52322117e-04
1.52177171e-04
1.52032395e-04
1.51887794e-04
1.51743367e-04
1.51599102e-04
1.51454987e-04
1.51309794e-04
1.51164137e-04
1.51019093e-04
1.50874923e-04
1.50731299e-04
1.50587871e-04
1.50444566e-04
1.50301512e-04
1.50158811e-04
1.50016423e-04
1.49874210e-04
1.49732042e-04
1.49589867e-04
1.49447704e-04
1.49305607e-04
1.49163633e-04
1.48991563e-04
1.48806922e-04
1.48637244e-04
1.48489419e-04
1.48353995e-04
1.48218990e-04
1.48078946e-04
1.47935048e-04
1.47790611e-04
1.47647503e-04
1.47505628e-04
1.47364206e-04
1.47222877e-04
1.47081814e-04
1.46941276e-04
1.46801264e-04
1.46661572e-04
1.46522017e-04
1.46382583e-04
1.46243374e-04
1.46104466e-04
1.45965840e-04
1.45827410e-04
1.45689051e-04
1.45550681e-04
1.45412300e-04
1.45273985e-04
1.45135843e-04
1.44997965e-04
1.44860392e-04
1.44723103e-04
1.44586034e-04
1.44449109e-04
1.44312268e-04
1.44175485e-04
1.44038773e-04
1.43902168e-04
1.43765712e-04
1.43629439e-04
1.43493366e-04
1.43357491e-04
1.43221797e-04
1.43086263e-04
1.42950868e-04
1.42815600e-04
1.42680453e-04
1.42545428e-04
1.42410531e-04
1.42275771e-04
1.42141154e-04
1.42006687e-04
1.41840167e-04
1.41644910e-04
1.41463954e-04
1.41313825e-04
1.41184703e-04
1.41059203e-04
1.40927632e-04
1.40790064e-04
1.40651319e-04
1.40514559e-04
1.40379735e-04
1.40245381e-04
1.40110625e-04
1.39975671e-04
1.39841090e-04
1.39707165e-04
1.39573851e-04
1.39440945e-04
1.39308349e-04
1.39176112e-04
1.39044300e-04
1.38912862e-04
1.38781626e-04
1.38650384e-04
1.38519002e-04
1.38387473e-04
1.38255910e-04
1.38124488e-04
1.37993354e-04
1.37862594e-04
1.37732206e-04
1.37602116e-04
1.37472215e-04
1.37342398e-04
1.37212601e-04
1.37082813e-04
1.36953065e-04
1.36823415e-04
1.36693924e-04
1.36564635e-04
1.36435567e-04
1.36306714e-04
1.36178050e-04
1.36049544e-04
1.35921166e-04
1.35792897e-04
1.35664726e-04
1.35536658e-04
1.35408703e-04
1.35280875e-04
1.35153187e-04
1.35025649e-04
1.34898264e-04
1.34771030e-04
1.34643941e-04
1.34516990e-04
1.34390169e-04
1.34263471e-04
1.34136896e-04
1.34010437e-04
1.33883258e-04
1.33756103e-04
1.33629493e-04
1.33503466e-04
1.33377782e-04
1.33252217e-04
1.33126700e-04
1.33001261e-04
1.32875942e-04
1.32750753e-04
1.32625689e-04
1.32500626e-04
1.32375589e-04
1.32250762e-04
1.32126208e-04
1.32001870e-04
1.31877660e-04
1.31753537e-04
1.31629526e-04
1.31505660e-04
1.31381278e-04
1.31256846e-04
1.31132846e-04
1.31009343e-04
1.30886145e-04
1.30763074e-04
1.30640091e-04
1.30517244e-04
1.30394568e-04
1.30272045e-04
1.30149635e-04
1.30027314e-04
1.29905092e-04
1.29782992e-04
1.29661032e-04
1.29539218e-04
1.29417544e-04
1.29296006e-04
1.29174598e-04
1.29053319e-04
1.28932167e-04
1.28811132e-04
1.28690219e-04
1.28569432e-04
1.28448775e-04
1.28328248e-04
1.28207850e-04
1.28087580e-04
1.27967437e-04
1.27847419e-04
1.27727524e-04
1.27607752e-04
1.27488101e-04
1.27368572e-04
1.27249165e-04
1.27129881e-04
1.27010720e-04
1.26891681e-04
1.26772768e-04
1.26653981e-04
1.26535321e-04
1.26416786e-04
1.26298375e-04
1.26180085e-04
1.26061917e-04
1.25943869e-04
1.25825942e-04
1.25708136e-04
1.25590451e-04
1.25472887e-04
1.25355446e-04
1.25238125e-04
1.25120926e-04
1.25003848e-04
1.24886892e-04
1.24770059e-04
1.24653347e-04
1.24536755e-04
1.24420281e-04
1.24303932e-04
1.24187707e-04
1.24071601e-04
1.23955611e-04
1.23839734e-04
1.23723972e-04
1.23608325e-04
1.23492796e-04
1.23377387e-04
1.23262100e-04
1.23146936e-04
1.23031895e-04
1.22893340e-04
1.22735945e-04
1.22588852e-04
1.22462294e-04
1.22349036e-04
1.22237790e-04
1.22123105e-04
1.22006061e-04
1.21889707e-04
1.21775326e-04
1.21661977e-04
1.21548171e-04
1.21433360e-04
1.21317907e-04
1.21202416e-04
1.21087218e-04
1.20972338e-04
1.20857742e-04
1.20743510e-04
1.20629807e-04
1.20516749e-04
1.20404295e-04
1.20292260e-04
1.20180393e-04
1.20068473e-04
1.19956365e-04
1.19844025e-04
1.19731474e-04
1.19618881e-04
1.19506419e-04
1.19394209e-04
1.19282316e-04
1.19170744e-04
1.19059459e-04
1.18948399e-04
1.18837488e-04
1.18726662e-04
1.18615870e-04
1.18505094e-04
1.18394341e-04
1.18283638e-04
1.18173026e-04
1.18062546e-04
1.17952232e-04
1.17842102e-04
1.17732160e-04
1.17622391e-04
1.17512772e-04
1.17403274e-04
1.17293865e-04
1.17184534e-04
1.17075279e-04
1.16966103e-04
1.16856968e-04
1.16747907e-04
1.16638984e-04
1.16530227e-04
1.16421638e-04
1.16313205e-04
1.16204718e-04
1.16096316e-04
1.15988106e-04
1.15880091e-04
1.15772212e-04
1.15664410e-04
1.15556670e-04
1.15449015e-04
1.15341477e-04
1.15234075e-04
1.15126812e-04
1.15019676e-04
1.14912659e-04
1.14805753e-04
1.14698956e-04
1.14592268e-04
1.14485687e-04
1.14379213e-04
1.14272844e-04
1.14166582e-04
1.14060426e-04
1.13954379e-04
1.13848332e-04
1.13742073e-04
1.13635945e-04
1.13530136e-04
1.13424613e-04
1.13319247e-04
1.13213950e-04
1.13108722e-04
1.13003601e-04
1.12898614e-04
1.12793759e-04
1.12689012e-04
1.12584361e-04
1.12479805e-04
1.12375353e-04
1.12271011e-04
1.12166780e-04
1.12062656e-04
1.11958634e-04
1.11854716e-04
1.11750903e-04
1.11647198e-04
1.11543603e-04
1.11439925e-04
1.11336221e-04
1.11232702e-04
1.11129430e-04
1.11026351e-04
1.10923390e-04
1.10820517e-04
1.10716961e-04
1.10613069e-04
1.10509582e-04
1.10406784e-04
1.10304519e-04
1.10202476e-04
1.10100435e-04
1.09998344e-04
1.09896260e-04
1.09794268e-04
1.09692426e-04
1.09590753e-04
1.09489241e-04
1.09387858e-04
1.09286576e-04
1.09185374e-04
1.09084247e-04
1.08983209e-04
1.08882276e-04
1.08781462e-04
1.08680769e-04
1.08580189e-04
1.08479710e-04
1.08379324e-04
1.08279025e-04
1.08178820e-04
1.08078717e-04
1.07978718e-04
1.07878827e-04
1.07779041e-04
1.07679344e-04
1.07579729e-04
1.07480214e-04
1.07380808e-04
1.07281513e-04
1.07182324e-04
1.07083238e-04
1.06984251e-04
1.06885361e-04
1.06786570e-04
1.06687879e-04
1.06589288e-04
1.06490797e-04
1.06392408e-04
1.06294120e-04
1.06195933e-04
1.06097845e-04
1.05999863e-04
1.05901997e-04
1.05804233e-04
1.05706567e-04
1.05608994e-04
1.05511512e-04
1.05414117e-04
1.05316812e-04
1.05219602e-04
1.05122493e-04
1.05025487e-04
1.04928583e-04
1.04831782e-04
1.04735079e-04
1.04638473e-04
1.04541962e-04
1.04445544e-04
1.04349218e-04
1.04252986e-04
1.04156847e-04
1.04060802e-04
1.03964853e-04
1.03869000e-04
1.03773244e-04
1.03677583e-04
1.03582019e-04
1.03437253e-04
1.03279188e-04
1.03145422e-04
1.03042269e-04
1.02954434e-04
1.02865572e-04
1.02769745e-04
1.02669809e-04
1.02570342e-04
1.02473097e-04
1.02377100e-04
1.02280917e-04
1.02184158e-04
1.02087350e-04
1.01991090e-04
1.01890401e-04
1.01759386e-04
1.01627939e-04
1.01515017e-04
1.01419920e-04
1.01331495e-04
1.01240591e-04
1.01145204e-04
1.01047989e-04
1.00951627e-04
1.00856606e-04
1.00761946e-04
1.00666857e-04
1.00571489e-04
1.00476534e-04
1.00382462e-04
1.00289191e-04
1.00196293e-04
1.00103383e-04
1.00010338e-04
9.99172486e-05
