-965.64003
-965.65566
-965.70241
-965.7751
-965.85599
-965.92588
-965.97298
-966.00775
-966.04176
-966.07896
-966.11794
-966.15457
-966.18557
-966.21321
-966.24035
-966.26788
-966.29531
-966.32141
-966.3455
-966.36834
-966.39081
-966.41314
-966.43513
-966.45643
-966.47689
-966.49671
-966.51611
-966.53517
-966.55385
-966.57208
-966.58984
-966.60721
-966.62427
-966.64103
-966.6575
-966.67367
-966.68952
-966.70509
-966.72038
-966.73541
-966.75019
-966.76472
-966.77903
-966.79309
-966.80694
-966.82058
-966.83401
-966.84725
-966.86029
-966.87315
-966.88583
-966.89833
-966.91064
-966.92279
-966.93476
-966.94658
-966.95825
-966.96976
-966.98113
-966.99235
-967.00343
-967.01437
-967.02518
-967.03584
-967.04638
-967.05678
-967.06705
-967.07721
-967.08725
-967.09717
-967.10699
-967.11669
-967.12628
-967.13576
-967.14513
-967.15439
-967.16354
-967.17259
-967.18154
-967.19038
-967.19912
-967.20777
-967.21633
-967.22479
-967.23316
-967.24145
-967.24964
-967.25775
-967.26576
-967.2737
-967.28156
-967.28933
-967.29702
-967.30462
-967.31215
-967.31959
-967.32695
-967.33424
-967.34146
-967.34861
-967.35568
-967.36268
-967.36961
-967.37647
-967.38325
-967.38997
-967.39662
-967.4032
-967.40973
-967.41619
-967.42259
-967.42892
-967.43518
-967.44139
-967.44754
-967.45363
-967.45967
-967.46564
-967.47156
-967.47743
-967.48323
-967.48899
-967.49468
-967.50033
-967.50593
-967.51147
-967.51696
-967.52239
-967.52777
-967.5331
-967.53838
-967.54362
-967.54882
-967.55397
-967.55907
-967.56413
-967.56914
-967.5741
-967.57902
-967.58388
-967.58871
-967.5935
-967.59824
-967.60295
-967.60761
-967.61222
-967.6168
-967.62134
-967.62585
-967.63031
-967.63473
-967.63911
-967.64346
-967.64777
-967.65205
-967.65628
-967.66048
-967.66465
-967.66878
-967.67288
-967.67694
-967.68096
-967.68495
-967.68891
-967.69283
-967.69673
-967.70059
-967.70443
-967.70823
-967.712
-967.71574
-967.71944
-967.72312
-967.72677
-967.73039
-967.73399
-967.73755
-967.74109
-967.7446
-967.74808
-967.75153
-967.75495
-967.75834
-967.7617
-967.76505
-967.76836
-967.77166
-967.77492
-967.77816
-967.78138
-967.78457
-967.78773
-967.79087
-967.79398
-967.79707
-967.80013
-967.80318
-967.80619
-967.80919
-967.81217
-967.81512
-967.81805
-967.82096
-967.82384
-967.82671
-967.82955
-967.83237
-967.83517
-967.83795
-967.8407
-967.84344
-967.84616
-967.84886
-967.85154
-967.8542
-967.85684
-967.85947
-967.86207
-967.86465
-967.86722
-967.86976
-967.87229
-967.8748
-967.8773
-967.87977
-967.88223
-967.88466
-967.88708
-967.88948
-967.89187
-967.89424
-967.89659
-967.89893
-967.90125
-967.90356
-967.90584
-967.90812
-967.91037
-967.91261
-967.91484
-967.91705
-967.91925
-967.92143
-967.9236
-967.92575
-967.92788
-967.93
-967.93211
-967.93421
-967.93628
-967.93835
-967.9404
-967.94244
-967.94447
-967.94648
-967.94847
-967.95045
-967.95242
-967.95437
-967.95631
-967.95824
-967.96016
-967.96207
-967.96396
-967.96584
-967.96771
-967.96956
-967.9714
-967.97323
-967.97505
-967.97685
-967.97865
-967.98043
-967.98219
-967.98395
-967.98569
-967.98742
-967.98914
-967.99086
-967.99257
-967.99426
-967.99595
-967.99762
-967.99928
-968.00092
-968.00256
-968.00418
-968.00579
-968.0074
-968.00899
-968.01058
-968.01215
-968.01371
-968.01527
-968.01681
-968.01835
-968.01988
-968.02139
-968.0229
-968.0244
-968.02589
-968.02737
-968.02883
-968.03029
-968.03174
-968.03318
-968.03461
-968.03603
-968.03744
-968.03884
-968.04023
-968.04161
-968.04299
-968.04436
-968.04572
-968.04707
-968.04841
-968.04975
-968.05108
-968.05239
-968.05371
-968.05501
-968.0563
-968.05759
-968.05887
-968.06014
-968.06141
-968.06267
-968.06391
-968.06516
-968.06639
-968.06761
-968.06883
-968.07004
-968.07124
-968.07244
-968.07363
-968.07482
-968.07599
-968.07716
-968.07832
-968.07948
-968.08063
-968.08177
-968.08291
-968.08404
-968.08516
-968.08627
-968.08737
-968.08847
-968.08957
-968.09066
-968.09174
-968.09282
-968.09388
-968.09495
-968.096
-968.09705
-968.09809
-968.09913
-968.10016
-968.10119
-968.10221
-968.10322
-968.10423
-968.10523
-968.10623
-968.10723
-968.10821
-968.10919
-968.11017
-968.11114
-968.1121
-968.11306
-968.114
-968.11495
-968.11589
-968.11682
-968.11775
-968.11868
-968.1196
-968.12051
-968.12142
-968.12232
-968.12322
-968.12411
-968.125
-968.12588
-968.12676
-968.12763
-968.12849
-968.12936
-968.13021
-968.13107
-968.13191
-968.13276
-968.13359
-968.13443
-968.13525
-968.13608
-968.1369
-968.13771
-968.13852
-968.13933
-968.14012
-968.14092
-968.14171
-968.14249
-968.14328
-968.14405
-968.14483
-968.1456
-968.14636
-968.14713
-968.14788
-968.14863
-968.14938
-968.15012
-968.15086
-968.15159
-968.15233
-968.15305
-968.15378
-968.1545
-968.15521
-968.15592
-968.15663
-968.15733
-968.15803
-968.15872
-968.15941
-968.1601
-968.16079
-968.16147
-968.16214
-968.16281
-968.16348
-968.16414
-968.1648
-968.16545
-968.16611
-968.16676
-968.1674
-968.16804
-968.16868
-968.16932
-968.16995
-968.17058
-968.1712
-968.17182
-968.17244
-968.17305
-968.17366
-968.17427
-968.17487
-968.17548
-968.17608
-968.17667
-968.17726
-968.17785
-968.17844
-968.17902
-968.1796
-968.18017
-968.18074
-968.18131
-968.18188
-968.18245
-968.18301
-968.18357
-968.18412
-968.18468
-968.18522
-968.18577
-968.18631
-968.18685
-968.18739
-968.18792
-968.18845
-968.18898
-968.1895
-968.19002
-968.19054
-968.19106
-968.19157
-968.19209
-968.1926
-968.1931
-968.19361
-968.19411
-968.19461
-968.19511
-968.1956
-968.19609
-968.19658
-968.19706
-968.19755
-968.19803
-968.19851
-968.19898
-968.19945
-968.19992
-968.20039
-968.20085
-968.20132
-968.20178
-968.20223
-968.20269
-968.20314
-968.20359
-968.20404
-968.20448
-968.20493
-968.20537
-968.20581
-968.20624
-968.20667
-968.2071
-968.20754
-968.20796
-968.20839
-968.20882
-968.20924
-968.20966
-968.21007
-968.21048
-968.2109
-968.21131
-968.21172
-968.21212
-968.21252
-968.21292
-968.21332
-968.21372
-968.21411
-968.2145
-968.21489
-968.21527
-968.21566
-968.21604
-968.21642
-968.2168
-968.21718
-968.21756
-968.21794
-968.21831
-968.21869
-968.21906
-968.21942
-968.21979
-968.22015
-968.22051
-968.22087
-968.22122
-968.22158
-968.22194
-968.22229
-968.22264
-968.22299
-968.22333
-968.22368
-968.22403
-968.22437
-968.22471
-968.22505
-968.22539
-968.22572
-968.22605
-968.22639
-968.22672
-968.22704
-968.22737
-968.2277
-968.22802
-968.22834
-968.22866
-968.22898
-968.22929
-968.22961
-968.22993
-968.23024
-968.23055
-968.23086
-968.23117
-968.23148
-968.23178
-968.23209
-968.23239
-968.23269
-968.23299
-968.23329
-968.23359
-968.23388
-968.23418
-968.23447
-968.23476
-968.23504
-968.23533
-968.23562
-968.2359
-968.23619
-968.23647
-968.23675
-968.23703
-968.2373
-968.23758
-968.23785
-968.23813
-968.2384
-968.23867
-968.23894
-968.2392
-968.23947
-968.23974
-968.24
-968.24027
-968.24053
-968.24079
-968.24105
-968.2413
-968.24156
-968.24182
-968.24208
-968.24233
-968.24258
-968.24284
-968.24309
-968.24333
-968.24358
-968.24383
-968.24407
-968.24432
-968.24456
-968.24481
-968.24505
-968.24529
-968.24553
-968.24576
-968.246
-968.24623
-968.24647
-968.2467
-968.24693
-968.24716
-968.24739
-968.24762
-968.24785
-968.24807
-968.2483
-968.24853
-968.24875
-968.24897
-968.24919
-968.24941
-968.24963
-968.24985
-968.25007
-968.25028
-968.2505
-968.25071
-968.25093
-968.25114
-968.25135
-968.25156
-968.25177
-968.25197
-968.25218
-968.25239
-968.25259
-968.25279
-968.253
-968.2532
-968.2534
-968.2536
-968.2538
-968.254
-968.2542
-968.25439
-968.25459
-968.25479
-968.25498
-968.25517
-968.25537
-968.25556
-968.25575
-968.25593
-968.25612
-968.25631
-968.25649
-968.25668
-968.25686
-968.25705
-968.25723
-968.25741
-968.2576
-968.25778
-968.25796
-968.25813
-968.25831
-968.25849
-968.25867
-968.25885
-968.25902
-968.25919
-968.25937
-968.25954
-968.25971
-968.25988
-968.26005
-968.26022
-968.26039
-968.26056
-968.26072
-968.26089
-968.26106
-968.26122
-968.26139
-968.26155
-968.26171
-968.26188
-968.26204
-968.2622
-968.26236
-968.26251
-968.26267
-968.26283
-968.26299
-968.26314
-968.2633
-968.26345
-968.26361
-968.26376
-968.26391
-968.26406
-968.26421
-968.26436
-968.26451
-968.26466
-968.26481
-968.26496
-968.26511
-968.26525
-968.2654
-968.26555
-968.26569
-968.26584
-968.26598
-968.26612
-968.26626
-968.2664
-968.26654
-968.26668
-968.26682
-968.26696
-968.2671
-968.26723
-968.26737
-968.26751
-968.26764
-968.26778
-968.26791
-968.26805
-968.26818
-968.26831
-968.26844
-968.26857
-968.2687
-968.26883
-968.26896
-968.26909
-968.26922
-968.26935
-968.26947
-968.2696
-968.26972
-968.26985
-968.26997
-968.2701
-968.27022
-968.27034
-968.27046
-968.27059
-968.27071
-968.27083
-968.27095
-968.27107
-968.27119
-968.2713
-968.27142
-968.27154
-968.27166
-968.27177
-968.27189
-968.27201
-968.27212
-968.27224
-968.27235
-968.27246
-968.27258
-968.27269
-968.2728
-968.27292
-968.27303
-968.27314
-968.27325
-968.27336
-968.27347
-968.27357
-968.27368
-968.27379
-968.2739
-968.27401
-968.27411
-968.27422
-968.27433
-968.27443
-968.27454
-968.27464
-968.27474
-968.27484
-968.27495
-968.27505
-968.27515
-968.27525
-968.27535
-968.27546
-968.27556
-968.27566
-968.27576
-968.27585
-968.27595
-968.27605
-968.27615
-968.27624
-968.27634
-968.27644
-968.27653
-968.27663
-968.27673
-968.27682
-968.27692
-968.27701
-968.2771
-968.2772
-968.27729
-968.27738
-968.27748
-968.27757
-968.27766
-968.27775
-968.27784
-968.27793
-968.27802
-968.27811
-968.2782
-968.27829
-968.27838
-968.27847
-968.27855
-968.27864
-968.27873
-968.27882
-968.2789
-968.27899
-968.27907
-968.27916
-968.27924
-968.27933
-968.27941
-968.2795
-968.27958
-968.27967
-968.27975
-968.27983
-968.27991
-968.28
-968.28008
-968.28016
-968.28024
-968.28032
-968.2804
-968.28048
-968.28056
-968.28064
-968.28072
-968.2808
-968.28087
-968.28095
-968.28103
-968.28111
-968.28118
-968.28126
-968.28134
-968.28141
-968.28149
-968.28156
-968.28164
-968.28171
-968.28179
-968.28186
-968.28194
-968.28201
-968.28208
-968.28216
-968.28223
-968.2823
-968.28238
-968.28245
-968.28252
-968.28259
-968.28266
-968.28274
-968.28281
-968.28287
-968.28294
-968.28301
-968.28308
-968.28315
-968.28322
-968.28329
-968.28336
-968.28343
-968.2835
-968.28356
-968.28363
-968.2837
-968.28376
-968.28383
-968.28389
-968.28396
-968.28403
-968.28409
-968.28416
-968.28422
-968.28428
-968.28435
-968.28441
-968.28448
-968.28454
-968.2846
-968.28467
-968.28473
-968.28479
-968.28485
-968.28492
-968.28498
-968.28504
-968.2851
-968.28516
-968.28523
-968.28529
-968.28535
-968.28541
-968.28547
-968.28553
-968.28559
-968.28565
-968.28571
-968.28577
-968.28583
-968.28588
-968.28594
-968.286
-968.28605
-968.28611
-968.28617
-968.28623
-968.28628
-968.28634
-968.2864
-968.28645
-968.28651
-968.28656
-968.28662
-968.28668
-968.28673
-968.28679
-968.28684
-968.28689
-968.28695
-968.287
-968.28705
-968.2871
-968.28716
-968.28721
-968.28727
-968.28732
-968.28737
-968.28742
-968.28747
-968.28752
-968.28758
-968.28763
-968.28768
-968.28773
-968.28778
-968.28783
-968.28788
-968.28793
-968.28798
-968.28803
-968.28808
-968.28813
-968.28818
-968.28823
-968.28828
-968.28833
-968.28837
-968.28842
-968.28847
-968.28852
-968.28856
-968.28861
-968.28866
-968.28871
-968.28875
-968.2888
-968.28885
-968.28889
-968.28894
-968.28899
-968.28903
-968.28908
-968.28912
-968.28917
-968.28921
-968.28925
-968.2893
-968.28934
-968.28939
-968.28943
-968.28948
-968.28952
-968.28957
-968.28961
-968.28965
-968.28969
-968.28974
-968.28978
-968.28983
-968.28987
-968.28991
-968.28995
-968.28999
-968.29003
-968.29008
-968.29012
-968.29016
-968.2902
-968.29024
-968.29028
-968.29032
-968.29036
-968.2904
-968.29044
-968.29048
-968.29052
-968.29056
-968.2906
-968.29064
-968.29067
-968.29071
-968.29075
-968.29079
-968.29083
-968.29087
-968.2909
-968.29094
-968.29098
-968.29102
-968.29106
-968.29109
-968.29113
-968.29117
-968.2912
-968.29124
-968.29127
-968.29131
-968.29135
-968.29138
-968.29142
-968.29145
-968.29149
-968.29152
-968.29156
-968.29159
-968.29163
-968.29166
-968.2917
-968.29173
-968.29177
-968.2918
-968.29184
-968.29187
-968.2919
-968.29194
-968.29197
-968.292
-968.29204
-968.29207
-968.2921
-968.29214
-968.29217
-968.2922
-968.29223
-968.29227
-968.2923
-968.29233
-968.29236
-968.29239
-968.29242
-968.29246
-968.29249
-968.29252
-968.29255
-968.29258
-968.29261
-968.29264
-968.29267
-968.2927
-968.29273
-968.29276
-968.29279
-968.29282
-968.29285
-968.29288
-968.29291
-968.29294
-968.29297
-968.293
-968.29303
-968.29305
-968.29308
-968.29311
-968.29314
-968.29317
-968.2932
-968.29323
-968.29325
-968.29328
-968.29331
-968.29333
-968.29336
-968.29339
-968.29342
-968.29344
-968.29347
-968.2935
-968.29352
-968.29355
-968.29358
-968.2936
-968.29363
-968.29366
-968.29368
-968.29371
-968.29373
-968.29376
-968.29379
-968.29381
-968.29384
-968.29386
-968.29389
-968.29391
-968.29394
-968.29396
-968.29399
-968.29401
-968.29404
-968.29406
-968.29409
-968.29411
-968.29414
-968.29416
-968.29418
-968.29421
-968.29423
-968.29425
-968.29428
-968.2943
-968.29432
-968.29435
-968.29437
-968.29439
-968.29442
-968.29444
-968.29446
-968.29448
-968.29451
-968.29453
-968.29455
-968.29458
-968.2946
-968.29462
-968.29464
-968.29466
-968.29469
-968.29471
-968.29473
-968.29475
-968.29477
-968.29479
-968.29481
-968.29483
-968.29485
-968.29487
-968.29489
-968.29491
-968.29494
-968.29496
-968.29498
-968.295
-968.29502
-968.29504
-968.29506
-968.29508
-968.2951
-968.29512
-968.29514
-968.29516
-968.29518
-968.2952
-968.29522
-968.29524
-968.29525
-968.29527
-968.29529
-968.29531
-968.29533
-968.29535
-968.29537
-968.29539
-968.29541
-968.29543
-968.29544
-968.29546
-968.29548
-968.2955
-968.29552
-968.29554
-968.29555
-968.29557
-968.29559
-968.29561
-968.29563
-968.29564
-968.29566
-968.29568
-968.2957
-968.29571
-968.29573
-968.29575
-968.29576
-968.29578
-968.2958
-968.29581
-968.29583
-968.29585
-968.29586
-968.29588
-968.2959
-968.29591
-968.29593
-968.29595
-968.29596
-968.29598
-968.296
-968.29601
-968.29603
-968.29605
-968.29606
-968.29608
-968.29609
-968.29611
-968.29613
-968.29614
-968.29616
-968.29617
-968.29619
-968.2962
-968.29622
-968.29623
-968.29625
-968.29626
-968.29628
-968.29629
-968.29631
-968.29632
-968.29634
-968.29635
-968.29637
-968.29638
-968.2964
-968.29641
-968.29643
-968.29644
-968.29645
-968.29647
-968.29648
-968.2965
-968.29651
-968.29653
-968.29654
-968.29655
-968.29657
-968.29658
-968.2966
-968.29661
-968.29662
-968.29664
-968.29665
-968.29666
-968.29668
-968.29669
-968.29671
-968.29672
-968.29673
-968.29675
-968.29676
-968.29677
-968.29678
-968.2968
-968.29681
-968.29682
-968.29684
-968.29685
-968.29686
-968.29688
-968.29689
-968.2969
-968.29691
-968.29693
-968.29694
-968.29695
-968.29696
-968.29698
-968.29699
-968.297
-968.29701
-968.29703
-968.29704
-968.29705
-968.29706
-968.29707
-968.29709
-968.2971
-968.29711
-968.29712
-968.29713
-968.29714
-968.29716
-968.29717
-968.29718
-968.29719
-968.2972
-968.29721
-968.29723
-968.29724
-968.29725
-968.29726
-968.29727
-968.29728
-968.29729
-968.2973
-968.29732
-968.29733
-968.29734
-968.29735
-968.29736
-968.29737
-968.29738
-968.29739
-968.2974
-968.29741
-968.29743
-968.29744
-968.29745
-968.29746
-968.29747
-968.29748
-968.29749
-968.2975
-968.29751
-968.29752
-968.29753
-968.29754
-968.29755
-968.29756
-968.29757
-968.29758
-968.29759
-968.2976
-968.29761
-968.29762
-968.29763
-968.29764
-968.29765
-968.29766
-968.29767
-968.29768
-968.29769
-968.2977
-968.29771
-968.29772
-968.29773
-968.29774
-968.29775
-968.29776
-968.29777
-968.29778
-968.29779
-968.2978
-968.2978
-968.29781
-968.29782
-968.29783
-968.29784
-968.29785
-968.29786
-968.29787
-968.29788
-968.29789
-968.2979
-968.29791
-968.29792
-968.29792
-968.29793
-968.29794
-968.29795
-968.29796
-968.29797
-968.29798
-968.29799
-968.29799
-968.298
-968.29801
-968.29802
-968.29803
-968.29804
-968.29805
-968.29806
-968.29806
-968.29807
-968.29808
-968.29809
-968.2981
-968.29811
-968.29811
-968.29812
-968.29813
-968.29814
-968.29815
-968.29816
-968.29816
-968.29817
-968.29818
-968.29819
-968.2982
-968.2982
-968.29821
-968.29822
-968.29823
-968.29824
-968.29824
-968.29825
-968.29826
-968.29827
-968.29828
-968.29828
-968.29829
-968.2983
-968.29831
-968.29831
-968.29832
-968.29833
-968.29834
-968.29835
-968.29835
-968.29836
-968.29837
-968.29837
-968.29838
-968.29839
-968.2984
-968.2984
-968.29841
-968.29842
-968.29843
-968.29843
-968.29844
-968.29845
-968.29846
-968.29846
-968.29847
-968.29848
-968.29849
-968.29849
-968.2985
-968.29851
-968.29851
-968.29852
-968.29853
-968.29854
-968.29854
-968.29855
-968.29856
-968.29856
-968.29857
-968.29858
-968.29858
-968.29859
-968.2986
-968.2986
-968.29861
-968.29862
-968.29862
-968.29863
-968.29864
-968.29865
-968.29865
-968.29866
-968.29867
-968.29867
-968.29868
-968.29869
-968.29869
-968.2987
-968.2987
-968.29871
-968.29872
-968.29872
-968.29873
-968.29874
-968.29874
-968.29875
-968.29876
-968.29876
-968.29877
-968.29878
-968.29878
-968.29879
-968.29879
-968.2988
-968.29881
-968.29881
-968.29882
-968.29883
-968.29883
-968.29884
-968.29884
-968.29885
-968.29886
-968.29886
-968.29887
-968.29887
-968.29888
-968.29889
-968.29889
-968.2989
-968.2989
-968.29891
-968.29891
-968.29892
-968.29893
-968.29893
-968.29894
-968.29894
-968.29895
-968.29895
-968.29896
-968.29897
-968.29897
-968.29898
-968.29898
-968.29899
-968.29899
-968.299
-968.29901
-968.29901
-968.29902
-968.29902
-968.29903
-968.29903
-968.29904
-968.29904
-968.29905
-968.29906
-968.29906
-968.29907
-968.29907
-968.29908
-968.29908
-968.29909
-968.29909
-968.2991
-968.2991
-968.29911
-968.29912
-968.29912
-968.29913
-968.29913
-968.29914
-968.29914
-968.29915
-968.29915
-968.29916
-968.29916
-968.29917
-968.29917
-968.29918
-968.29918
-968.29919
-968.29919
-968.2992
-968.2992
-968.29921
-968.29921
-968.29922
-968.29922
-968.29923
-968.29923
-968.29924
-968.29924
-968.29925
-968.29925
-968.29926
-968.29926
-968.29927
-968.29927
-968.29928
-968.29928
-968.29929
-968.29929
-968.2993
-968.2993
-968.29931
-968.29931
-968.29931
-968.29932
-968.29932
-968.29933
-968.29933
-968.29934
-968.29934
-968.29935
-968.29935
-968.29936
-968.29936
-968.29937
-968.29937
-968.29937
-968.29938
-968.29938
-968.29939
-968.29939
-968.2994
-968.2994
-968.29941
-968.29941
-968.29941
-968.29942
-968.29942
-968.29943
-968.29943
-968.29944
-968.29944
-968.29945
-968.29945
-968.29945
-968.29946
-968.29946
-968.29947
-968.29947
-968.29948
-968.29948
-968.29948
-968.29949
-968.29949
-968.2995
-968.2995
-968.29951
-968.29951
-968.29951
-968.29952
-968.29952
-968.29953
-968.29953
-968.29953
-968.29954
-968.29954
-968.29955
-968.29955
-968.29955
-968.29956
-968.29956
-968.29957
-968.29957
-968.29957
-968.29958
-968.29958
-968.29959
-968.29959
-968.29959
-968.2996
-968.2996
-968.29961
-968.29961
-968.29961
-968.29962
-968.29962
-968.29963
-968.29963
-968.29963
-968.29964
-968.29964
-968.29964
-968.29965
-968.29965
-968.29966
-968.29966
-968.29966
-968.29967
-968.29967
-968.29967
-968.29968
-968.29968
-968.29968
-968.29969
-968.29969
-968.2997
-968.2997
-968.2997
-968.29971
-968.29971
-968.29971
-968.29972
-968.29972
-968.29972
-968.29973
-968.29973
-968.29973
-968.29974
-968.29974
-968.29975
-968.29975
-968.29975
-968.29976
-968.29976
-968.29976
-968.29977
-968.29977
-968.29977
-968.29978
-968.29978
-968.29978
-968.29979
-968.29979
-968.29979
-968.2998
-968.2998
-968.2998
-968.29981
-968.29981
-968.29981
-968.29982
-968.29982
-968.29982
-968.29983
-968.29983
-968.29983
-968.29984
-968.29984
-968.29984
-968.29985
-968.29985
-968.29985
-968.29986
-968.29986
-968.29986
-968.29986
-968.29987
-968.29987
-968.29987
-968.29988
-968.29988
-968.29988
-968.29989
-968.29989
-968.29989
-968.2999
-968.2999
-968.2999
-968.2999
-968.29991
-968.29991
-968.29991
-968.29992
-968.29992
-968.29992
-968.29993
-968.29993
-968.29993
-968.29993
-968.29994
-968.29994
-968.29994
-968.29995
-968.29995
-968.29995
-968.29996
-968.29996
-968.29996
-968.29996
-968.29997
-968.29997
-968.29997
-968.29998
-968.29998
-968.29998
-968.29998
-968.29999
-968.29999
-968.29999
-968.3
-968.3
-968.3
-968.3
-968.30001
-968.30001
-968.30001
-968.30001
-968.30002
-968.30002
-968.30002
-968.30003
-968.30003
-968.30003
-968.30003
-968.30004
-968.30004
-968.30004
-968.30004
-968.30005
-968.30005
-968.30005
-968.30006
-968.30006
-968.30006
-968.30006
-968.30007
-968.30007
-968.30007
-968.30007
-968.30008
-968.30008
-968.30008
-968.30008
-968.30009
-968.30009
-968.30009
-968.30009
-968.3001
-968.3001
-968.3001
-968.3001
-968.30011
-968.30011
-968.30011
-968.30011
-968.30012
-968.30012
-968.30012
-968.30012
-968.30013
-968.30013
-968.30013
-968.30013
-968.30014
-968.30014
-968.30014
-968.30014
-968.30015
-968.30015
-968.30015
-968.30015
-968.30015
-968.30016
-968.30016
-968.30016
-968.30016
-968.30017
-968.30017
-968.30017
-968.30017
-968.30018
-968.30018
-968.30018
-968.30018
-968.30019
-968.30019
-968.30019
-968.30019
-968.30019
-968.3002
-968.3002
-968.3002
-968.3002
-968.30021
-968.30021
-968.30021
-968.30021
-968.30021
-968.30022
-968.30022
-968.30022
-968.30022
-968.30023
-968.30023
-968.30023
-968.30023
-968.30023
-968.30024
-968.30024
-968.30024
-968.30024
-968.30024
-968.30025
-968.30025
-968.30025
-968.30025
-968.30026
-968.30026
-968.30026
-968.30026
-968.30026
-968.30027
-968.30027
-968.30027
-968.30027
-968.30027
-968.30028
-968.30028
-968.30028
-968.30028
-968.30028
-968.30029
-968.30029
-968.30029
-968.30029
-968.30029
-968.3003
-968.3003
-968.3003
-968.3003
-968.3003
-968.30031
-968.30031
-968.30031
-968.30031
-968.30031
-968.30032
-968.30032
-968.30032
-968.30032
-968.30032
-968.30033
-968.30033
-968.30033
-968.30033
-968.30033
-968.30033
-968.30034
-968.30034
-968.30034
-968.30034
-968.30034
-968.30035
-968.30035
-968.30035
-968.30035
-968.30035
-968.30036
-968.30036
-968.30036
-968.30036
-968.30036
-968.30036
-968.30037
-968.30037
-968.30037
-968.30037
-968.30037
-968.30037
-968.30038
-968.30038
-968.30038
-968.30038
-968.30038
-968.30039
-968.30039
-968.30039
-968.30039
-968.30039
-968.30039
-968.3004
-968.3004
-968.3004
-968.3004
-968.3004
-968.3004
-968.30041
-968.30041
-968.30041
-968.30041
-968.30041
-968.30041
-968.30042
-968.30042
-968.30042
-968.30042
-968.30042
-968.30042
-968.30043
-968.30043
-968.30043
-968.30043
-968.30043
-968.30043
-968.30044
-968.30044
-968.30044
-968.30044
-968.30044
-968.30044
-968.30045
-968.30045
-968.30045
-968.30045
-968.30045
-968.30045
-968.30045
-968.30046
-968.30046
-968.30046
-968.30046
-968.30046
-968.30046
-968.30047
-968.30047
-968.30047
-968.30047
-968.30047
-968.30047
-968.30048
-968.30048
-968.30048
-968.30048
-968.30048
-968.30048
-968.30048
-968.30049
-968.30049
-968.30049
-968.30049
-968.30049
-968.30049
-968.30049
-968.3005
-968.3005
-968.3005
-968.3005
-968.3005
-968.3005
-968.3005
-968.30051
-968.30051
-968.30051
-968.30051
-968.30051
-968.30051
-968.30051
-968.30052
-968.30052
-968.30052
-968.30052
-968.30052
-968.30052
-968.30052
-968.30053
-968.30053
-968.30053
-968.30053
-968.30053
-968.30053
-968.30053
-968.30054
-968.30054
-968.30054
-968.30054
-968.30054
-968.30054
-968.30054
-968.30054
-968.30055
-968.30055
-968.30055
-968.30055
-968.30055
-968.30055
-968.30055
-968.30055
-968.30056
-968.30056
-968.30056
-968.30056
-968.30056
-968.30056
-968.30056
-968.30057
-968.30057
-968.30057
-968.30057
-968.30057
-968.30057
-968.30057
-968.30057
-968.30058
-968.30058
-968.30058
-968.30058
-968.30058
-968.30058
-968.30058
-968.30058
-968.30059
-968.30059
-968.30059
-968.30059
-968.30059
-968.30059
-968.30059
-968.30059
-968.3006
-968.3006
-968.3006
-968.3006
-968.3006
-968.3006
-968.3006
-968.3006
-968.3006
-968.30061
-968.30061
-968.30061
-968.30061
-968.30061
-968.30061
-968.30061
-968.30061
-968.30061
-968.30062
-968.30062
-968.30062
-968.30062
-968.30062
-968.30062
-968.30062
-968.30062
-968.30063
-968.30063
-968.30063
-968.30063
-968.30063
-968.30063
-968.30063
-968.30063
-968.30063
-968.30064
-968.30064
-968.30064
-968.30064
-968.30064
-968.30064
-968.30064
-968.30064
-968.30064
-968.30065
-968.30065
-968.30065
-968.30065
-968.30065
-968.30065
-968.30065
-968.30065
-968.30065
-968.30065
-968.30066
-968.30066
-968.30066
-968.30066
-968.30066
-968.30066
-968.30066
-968.30066
-968.30066
-968.30067
-968.30067
-968.30067
-968.30067
-968.30067
-968.30067
-968.30067
-968.30067
-968.30067
-968.30067
-968.30068
-968.30068
-968.30068
-968.30068
-968.30068
-968.30068
-968.30068
-968.30068
-968.30068
-968.30068
-968.30068
-968.30069
-968.30069
-968.30069
-968.30069
-968.30069
-968.30069
-968.30069
-968.30069
-968.30069
-968.30069
-968.3007
-968.3007
-968.3007
-968.3007
-968.3007
-968.3007
-968.3007
-968.3007
-968.3007
-968.3007
-968.3007
-968.30071
-968.30071
-968.30071
-968.30071
-968.30071
-968.30071
-968.30071
-968.30071
-968.30071
-968.30071
-968.30071
-968.30072
-968.30072
-968.30072
-968.30072
-968.30072
-968.30072
-968.30072
-968.30072
-968.30072
-968.30072
-968.30072
-968.30073
-968.30073
-968.30073
-968.30073
-968.30073
-968.30073
-968.30073
-968.30073
-968.30073
-968.30073
-968.30073
-968.30074
-968.30074
-968.30074
-968.30074
-968.30074
-968.30074
-968.30074
-968.30074
-968.30074
-968.30074
-968.30074
-968.30074
-968.30075
-968.30075
-968.30075
-968.30075
-968.30075
-968.30075
-968.30075
-968.30075
-968.30075
-968.30075
-968.30075
-968.30075
-968.30075
-968.30076
-968.30076
-968.30076
-968.30076
-968.30076
-968.30076
-968.30076
-968.30076
-968.30076
-968.30076
-968.30076
-968.30076
-968.30077
-968.30077
-968.30077
-968.30077
-968.30077
-968.30077
-968.30077
-968.30077
-968.30077
-968.30077
-968.30077
-968.30077
-968.30077
-968.30078
-968.30078
-968.30078
-968.30078
-968.30078
-968.30078
-968.30078
-968.30078
-968.30078
-968.30078
-968.30078
-968.30078
-968.30078
-968.30078
-968.30079
-968.30079
-968.30079
-968.30079
-968.30079
-968.30079
-968.30079
-968.30079
-968.30079
-968.30079
-968.30079
-968.30079
-968.30079
-968.30079
-968.3008
-968.3008
-968.3008
-968.3008
-968.3008
-968.3008
-968.3008
-968.3008
-968.3008
-968.3008
-968.3008
-968.3008
-968.3008
-968.3008
-968.30081
-968.30081
-968.30081
-968.30081
-968.30081
-968.30081
-968.30081
-968.30081
-968.30081
-968.30081
-968.30081
-968.30081
-968.30081
-968.30081
-968.30081
-968.30081
-968.30082
-968.30082
-968.30082
-968.30082
-968.30082
-968.30082
-968.30082
-968.30082
-968.30082
-968.30082
-968.30082
-968.30082
-968.30082
-968.30082
-968.30082
-968.30083
-968.30083
-968.30083
-968.30083
-968.30083
-968.30083
-968.30083
-968.30083
-968.30083
-968.30083
-968.30083
-968.30083
-968.30083
-968.30083
-968.30083
-968.30083
-968.30084
-968.30084
-968.30084
-968.30084
-968.30084
-968.30084
-968.30084
-968.30084
-968.30084
-968.30084
-968.30084
-968.30084
-968.30084
-968.30084
-968.30084
-968.30084
-968.30084
-968.30085
-968.30085
-968.30085
-968.30085
-968.30085
-968.30085
-968.30085
-968.30085
-968.30085
-968.30085
-968.30085
-968.30085
-968.30085
-968.30085
-968.30085
-968.30085
-968.30085
-968.30086
-968.30086
-968.30086
-968.30086
-968.30086
-968.30086
-968.30086
-968.30086
-968.30086
-968.30086
-968.30086
-968.30086
-968.30086
-968.30086
-968.30086
-968.30086
-968.30086
-968.30086
-968.30086
-968.30087
-968.30087
-968.30087
-968.30087
-968.30087
-968.30087
-968.30087
-968.30087
-968.30087
-968.30087
-968.30087
-968.30087
-968.30087
-968.30087
-968.30087
-968.30087
-968.30087
-968.30087
-968.30087
-968.30087
-968.30088
-968.30088
-968.30088
-968.30088
-968.30088
-968.30088
-968.30088
-968.30088
-968.30088
-968.30088
-968.30088
-968.30088
-968.30088
-968.30088
-968.30088
-968.30088
-968.30088
-968.30088
-968.30088
-968.30088
-968.30089
-968.30089
-968.30089
-968.30089
-968.30089
-968.30089
-968.30089
-968.30089
-968.30089
-968.30089
-968.30089
-968.30089
-968.30089
-968.30089
-968.30089
-968.30089
-968.30089
-968.30089
-968.30089
-968.30089
-968.30089
-968.3009
-968.3009
-968.3009
-968.3009
-968.3009
-968.3009
-968.3009
-968.3009
-968.3009
-968.3009
-968.3009
-968.3009
-968.3009
-968.3009
-968.3009
-968.3009
-968.3009
-968.3009
-968.3009
-968.3009
-968.3009
-968.3009
-968.30091
-968.30091
-968.30091
-968.30091
-968.30091
-968.30091
-968.30091
-968.30091
-968.30091
-968.30091
-968.30091
-968.30091
-968.30091
-968.30091
-968.30091
-968.30091
-968.30091
-968.30091
-968.30091
-968.30091
-968.30091
-968.30091
-968.30091
-968.30092
-968.30092
-968.30092
-968.30092
-968.30092
-968.30092
-968.30092
-968.30092
-968.30092
-968.30092
-968.30092
-968.30092
-968.30092
-968.30092
-968.30092
-968.30092
-968.30092
-968.30092
-968.30092
-968.30092
-968.30092
-968.30092
-968.30092
-968.30092
-968.30092
-968.30093
-968.30093
-968.30093
-968.30093
-968.30093
-968.30093
-968.30093
-968.30093
-968.30093
-968.30093
-968.30093
-968.30093
-968.30093
-968.30093
-968.30093
-968.30093
-968.30093
-968.30093
-968.30093
-968.30093
-968.30093
-968.30093
-968.30093
-968.30093
-968.30093
-968.30093
-968.30094
-968.30094
-968.30094
-968.30094
-968.30094
-968.30094
-968.30094
-968.30094
-968.30094
-968.30094
-968.30094
-968.30094
-968.30094
-968.30094
-968.30094
-968.30094
-968.30094
-968.30094
-968.30094
-968.30094
-968.30094
-968.30094
-968.30094
-968.30094
-968.30094
-968.30094
-968.30094
-968.30094
-968.30094
-968.30095
-968.30095
-968.30095
-968.30095
-968.30095
-968.30095
-968.30095
-968.30095
-968.30095
-968.30095
-968.30095
-968.30095
-968.30095
-968.30095
-968.30095
-968.30095
-968.30095
-968.30095
-968.30095
-968.30095
-968.30095
-968.30095
-968.30095
-968.30095
-968.30095
-968.30095
-968.30095
-968.30095
-968.30095
-968.30095
-968.30095
-968.30096
-968.30096
-968.30096
-968.30096
-968.30096
-968.30096
-968.30096
-968.30096
-968.30096
-968.30096
-968.30096
-968.30096
-968.30096
-968.30096
-968.30096
-968.30096
-968.30096
-968.30096
-968.30096
-968.30096
-968.30096
-968.30096
-968.30096
-968.30096
-968.30096
-968.30096
-968.30096
-968.30096
-968.30096
-968.30096
-968.30096
-968.30096
-968.30096
-968.30097
-968.30097
-968.30097
-968.30097
-968.30097
-968.30097
-968.30097
-968.30097
-968.30097
-968.30097
-968.30097
-968.30097
-968.30097
-968.30097
-968.30097
-968.30097
-968.30097
-968.30097
-968.30097
-968.30097
-968.30097
-968.30097
-968.30097
-968.30097
-968.30097
-968.30097
-968.30097
-968.30097
-968.30097
-968.30097
-968.30097
-968.30097
-968.30097
-968.30097
-968.30097
-968.30098
-968.30098
-968.30098
-968.30098
-968.30098
-968.30098
-968.30098
-968.30098
-968.30098
-968.30098
-968.30098
-968.30098
-968.30098
-968.30098
-968.30098
-968.30098
-968.30098
-968.30098
-968.30098
-968.30098
-968.30098
-968.30098
-968.30098
-968.30098
-968.30098
-968.30098
-968.30098
-968.30098
-968.30098
-968.30098
-968.30098
-968.30098
-968.30098
-968.30098
-968.30098
-968.30098
-968.30098
-968.30098
-968.30099
-968.30099
-968.30099
-968.30099
-968.30099
-968.30099
-968.30099
-968.30099
-968.30099
-968.30099
-968.30099
-968.30099
-968.30099
-968.30099
-968.30099
-968.30099
-968.30099
-968.30099
-968.30099
-968.30099
-968.30099
-968.30099
-968.30099
-968.30099
-968.30099
-968.30099
-968.30099
-968.30099
-968.30099
-968.30099
-968.30099
-968.30099
-968.30099
-968.30099
-968.30099
-968.30099
-968.30099
-968.30099
-968.30099
-968.30099
-968.30099
-968.30099
-968.301
-968.301
-968.301
-968.301
-968.301
-968.301
-968.301
-968.301
-968.301
-968.301
-968.301
-968.301
-968.301
-968.301
-968.301
-968.301
-968.301
-968.301
-968.301
-968.301
-968.301
-968.301
-968.301
-968.301
-968.301
-968.301
-968.301
-968.301
-968.301
-968.301
-968.301
-968.301
-968.301
-968.301
-968.301
-968.301
-968.301
-968.301
-968.301
-968.301
-968.301
-968.301
-968.301
-968.301
-968.301
-968.301
-968.301
-968.30101
-968.30101
-968.30101
-968.30101
-968.30101
-968.30101
-968.30101
-968.30101
-968.30101
-968.30101
-968.30101
-968.30101
-968.30101
-968.30101
-968.30101
-968.30101
-968.30101
-968.30101
-968.30101
-968.30101
-968.30101
-968.30101
-968.30101
-968.30101
-968.30101
-968.30101
-968.30101
-968.30101
-968.30101
-968.30101
-968.30101
-968.30101
-968.30101
-968.30101
-968.30101
-968.30101
-968.30101
-968.30101
-968.30101
-968.30101
-968.30101
-968.30101
-968.30101
-968.30101
-968.30101
-968.30101
-968.30101
-968.30101
-968.30101
-968.30101
-968.30101
-968.30101
-968.30102
-968.30102
-968.30102
-968.30102
-968.30102
-968.30102
-968.30102
-968.30102
-968.30102
-968.30102
-968.30102
-968.30102
-968.30102
-968.30102
-968.30102
-968.30102
-968.30102
-968.30102
-968.30102
-968.30102
-968.30102
-968.30102
-968.30102
-968.30102
-968.30102
-968.30102
-968.30102
-968.30102
-968.30102
-968.30102
-968.30102
-968.30102
-968.30102
-968.30102
-968.30102
-968.30102
-968.30102
-968.30102
-968.30102
-968.30102
-968.30102
-968.30102
-968.30102
-968.30102
-968.30102
-968.30102
-968.30102
-968.30102
-968.30102
-968.30102
-968.30102
-968.30102
-968.30102
-968.30102
-968.30102
-968.30102
-968.30102
-968.30102
-968.30102
-968.30102
-968.30102
-968.30103
-968.30103
-968.30103
-968.30103
-968.30103
-968.30103
-968.30103
-968.30103
-968.30103
-968.30103
-968.30103
-968.30103
-968.30103
-968.30103
-968.30103
-968.30103
-968.30103
-968.30103
-968.30103
-968.30103
-968.30103
-968.30103
-968.30103
-968.30103
-968.30103
-968.30103
-968.30103
-968.30103
-968.30103
-968.30103
-968.30103
-968.30103
-968.30103
-968.30103
-968.30103
-968.30103
-968.30103
-968.30103
-968.30103
-968.30103
-968.30103
-968.30103
-968.30103
-968.30103
-968.30103
-968.30103
-968.30103
-968.30103
-968.30103
-968.30103
-968.30103
-968.30103
-968.30103
-968.30103
-968.30103
-968.30103
-968.30103
-968.30103
-968.30103
-968.30103
-968.30103
-968.30103
-968.30103
-968.30103
-968.30103
-968.30103
-968.30103
-968.30103
-968.30103
-968.30104
-968.30104
-968.30104
-968.30104
-968.30104
-968.30104
-968.30104
-968.30104
-968.30104
-968.30104
-968.30104
-968.30104
-968.30104
-968.30104
-968.30104
-968.30104
-968.30104
-968.30104
-968.30104
-968.30104
-968.30104
-968.30104
-968.30104
-968.30104
-968.30104
-968.30104
-968.30104
-968.30104
-968.30104
-968.30104
-968.30104
-968.30104
-968.30104
-968.30104
-968.30104
-968.30104
-968.30104
-968.30104
-968.30104
-968.30104
-968.30104
-968.30104
-968.30104
-968.30104
-968.30104
-968.30104
-968.30104
-968.30104
-968.30104
-968.30104
-968.30104
-968.30104
-968.30104
-968.30104
-968.30104
-968.30104
-968.30104
-968.30104
-968.30104
-968.30104
-968.30104
-968.30104
-968.30104
-968.30104
-968.30104
-968.30104
-968.30104
-968.30104
-968.30104
-968.30104
-968.30104
-968.30104
-968.30104
-968.30104
-968.30104
-968.30104
-968.30104
-968.30104
-968.30104
-968.30104
-968.30104
-968.30105
-968.30105
-968.30105
-968.30105
-968.30105
-968.30105
-968.30105
-968.30105
-968.30105
-968.30105
-968.30105
-968.30105
-968.30105
-968.30105
-968.30105
-968.30105
-968.30105
-968.30105
-968.30105
-968.30105
-968.30105
-968.30105
-968.30105
-968.30105
-968.30105
-968.30105
-968.30105
-968.30105
-968.30105
-968.30105
-968.30105
-968.30105
-968.30105
-968.30105
-968.30105
-968.30105
-968.30105
-968.30105
-968.30105
-968.30105
-968.30105
-968.30105
-968.30105
-968.30105
-968.30105
-968.30105
-968.30105
-968.30105
-968.30105
-968.30105
-968.30105
-968.30105
-968.30105
-968.30105
-968.30105
-968.30105
-968.30105
-968.30105
-968.30105
-968.30105
-968.30105
-968.30105
-968.30105
-968.30105
-968.30105
-968.30105
-968.30105
-968.30105
-968.30105
-968.30105
-968.30105
-968.30105
-968.30105
-968.30105
-968.30105
-968.30105
-968.30105
-968.30105
-968.30105
-968.30105
-968.30105
-968.30105
-968.30105
-968.30105
-968.30105
-968.30105
-968.30105
-968.30105
-968.30105
-968.30105
-968.30105
-968.30105
-968.30105
-968.30105
-968.30105
-968.30105
-968.30105
-968.30105
-968.30105
-968.30105
-968.30106
-968.30106
-968.30106
-968.30106
-968.30106
-968.30106
-968.30106
-968.30106
-968.30106
-968.30106
-968.30106
-968.30106
-968.30106
-968.30106
-968.30106
-968.30106
-968.30106
-968.30106
-968.30106
-968.30106
-968.30106
-968.30106
-968.30106
-968.30106
-968.30106
-968.30106
-968.30106
-968.30106
-968.30106
-968.30106
-968.30106
-968.30106
-968.30106
-968.30106
-968.30106
-968.30106
-968.30106
-968.30106
-968.30106
-968.30106
-968.30106
-968.30106
-968.30106
-968.30106
-968.30106
-968.30106
-968.30106
-968.30106
-968.30106
-968.30106
-968.30106
-968.30106
-968.30106
-968.30106
-968.30106
-968.30106
-968.30106
-968.30106
-968.30106
-968.30106
-968.30106
-968.30106
-968.30106
-968.30106
-968.30106
-968.30106
-968.30106
-968.30106
-968.30106
-968.30106
-968.30106
-968.30106
-968.30106
-968.30106
-968.30106
-968.30106
-968.30106
-968.30106
-968.30106
-968.30106
-968.30106
-968.30106
-968.30106
-968.30106
-968.30106
-968.30106
-968.30106
-968.30106
-968.30106
-968.30106
-968.30106
-968.30106
-968.30106
-968.30106
-968.30106
-968.30106
-968.30106
-968.30106
-968.30106
-968.30106
-968.30106
-968.30106
-968.30106
-968.30106
-968.30106
-968.30106
-968.30106
-968.30106
-968.30106
-968.30106
-968.30106
-968.30106
-968.30106
-968.30106
-968.30106
-968.30106
-968.30106
-968.30106
-968.30106
-968.30106
-968.30106
-968.30106
-968.30106
-968.30106
-968.30106
-968.30107
-968.30107
-968.30107
-968.30107
-968.30107
-968.30107
-968.30107
-968.30107
-968.30107
-968.30107
-968.30107
-968.30107
-968.30107
-968.30107
-968.30107
-968.30107
-968.30107
-968.30107
-968.30107
-968.30107
-968.30107
-968.30107
-968.30107
-968.30107
-968.30107
-968.30107
-968.30107
-968.30107
-968.30107
-968.30107
-968.30107
-968.30107
-968.30107
-968.30107
-968.30107
-968.30107
-968.30107
-968.30107
-968.30107
-968.30107
-968.30107
-968.30107
-968.30107
-968.30107
-968.30107
-968.30107
-968.30107
-968.30107
-968.30107
-968.30107
-968.30107
-968.30107
-968.30107
-968.30107
-968.30107
-968.30107
-968.30107
-968.30107
-968.30107
-968.30107
-968.30107
-968.30107
-968.30107
-968.30107
-968.30107
-968.30107
-968.30107
-968.30107
-968.30107
-968.30107
-968.30107
-968.30107
-968.30107
-968.30107
-968.30107
-968.30107
-968.30107
-968.30107
-968.30107
-968.30107
-968.30107
-968.30107
-968.30107
-968.30107
-968.30107
-968.30107
-968.30107
-968.30107
-968.30107
-968.30107
-968.30107
-968.30107
-968.30107
-968.30107
-968.30107
-968.30107
-968.30107
-968.30107
-968.30107
-968.30107
-968.30107
-968.30107
-968.30107
-968.30107
-968.30107
-968.30107
-968.30107
-968.30107
-968.30107
-968.30107
-968.30107
-968.30107
-968.30107
-968.30107
-968.30107
-968.30107
-968.30107
-968.30107
-968.30107
-968.30107
-968.30107
-968.30107
-968.30107
-968.30107
-968.30107
-968.30107
-968.30107
-968.30107
-968.30107
-968.30107
-968.30107
-968.30107
-968.30107
-968.30107
-968.30107
-968.30107
-968.30107
-968.30107
-968.30107
-968.30107
-968.30107
-968.30107
-968.30107
-968.30107
-968.30107
-968.30107
-968.30107
-968.30107
-968.30107
-968.30107
-968.30107
-968.30107
-968.30107
-968.30107
-968.30107
-968.30107
-968.30107
-968.30107
-968.30107
-968.30107
-968.30107
-968.30107
-968.30107
-968.30107
-968.30107
-968.30107
-968.30107
-968.30107
-968.30107
-968.30107
-968.30107
-968.30107
-968.30107
-968.30107
-968.30108
-968.30108
-968.30108
-968.30108
-968.30108
-968.30108
-968.30108
-968.30108
-968.30108
-968.30108
-968.30108
-968.30108
-968.30108
-968.30108
-968.30108
-968.30108
-968.30108
-968.30108
-968.30108
-968.30108
-968.30108
-968.30108
-968.30108
-968.30108
-968.30108
-968.30108
-968.30108
-968.30108
-968.30108
-968.30108
-968.30108
-968.30108
-968.30108
-968.30108
-968.30108
-968.30108
-968.30108
-968.30108
-968.30108
-968.30108
-968.30108
-968.30108
-968.30108
-968.30108
-968.30108
-968.30108
-968.30108
-968.30108
-968.30108
-968.30108
-968.30108
-968.30108
-968.30108
-968.30108
-968.30108
-968.30108
-968.30108
-968.30108
-968.30108
-968.30108
-968.30108
-968.30108
-968.30108
-968.30108
-968.30108
-968.30108
-968.30108
-968.30108
-968.30108
-968.30108
-968.30108
-968.30108
-968.30108
-968.30108
-968.30108
-968.30108
-968.30108
-968.30108
-968.30108
-968.30108
-968.30108
-968.30108
-968.30108
-968.30108
-968.30108
-968.30108
-968.30108
-968.30108
-968.30108
-968.30108
-968.30108
-968.30108
-968.30108
-968.30108
-968.30108
-968.30108
-968.30108
-968.30108
-968.30108
-968.30108
-968.30108
-968.30108
-968.30108
-968.30108
-968.30108
-968.30108
-968.30108
-968.30108
-968.30108
-968.30108
-968.30108
-968.30108
-968.30108
-968.30108
-968.30108
-968.30108
-968.30108
-968.30108
-968.30108
-968.30108
-968.30108
-968.30108
-968.30108
-968.30108
-968.30108
-968.30108
-968.30108
-968.30108
-968.30108
-968.30108
-968.30108
-968.30108
-968.30108
-968.30108
-968.30108
-968.30108
-968.30108
-968.30108
-968.30108
-968.30108
-968.30108
-968.30108
-968.30108
-968.30108
-968.30108
-968.30108
-968.30108
-968.30108
-968.30108
-968.30108
-968.30108
-968.30108
-968.30108
-968.30108
-968.30108
-968.30108
-968.30108
-968.30108
-968.30108
-968.30108
-968.30108
-968.30108
-968.30108
-968.30108
-968.30108
-968.30108
-968.30108
-968.30108
-968.30108
-968.30108
-968.30108
-968.30108
-968.30108
-968.30108
-968.30108
-968.30108
-968.30108
-968.30108
-968.30108
-968.30108
-968.30108
-968.30108
-968.30108
-968.30108
-968.30108
-968.30108
-968.30108
-968.30108
-968.30108
-968.30108
-968.30108
-968.30108
-968.30108
-968.30108
-968.30108
-968.30108
-968.30108
-968.30108
-968.30108
-968.30108
-968.30108
-968.30108
-968.30108
-968.30108
-968.30108
-968.30108
-968.30108
-968.30108
-968.30108
-968.30108
-968.30108
-968.30108
-968.30108
-968.30108
-968.30108
-968.30108
-968.30108
-968.30108
-968.30108
-968.30108
-968.30108
-968.30108
-968.30108
-968.30108
-968.30108
-968.30108
-968.30108
-968.30108
-968.30108
-968.30108
-968.30108
-968.30108
-968.30108
-968.30108
-968.30108
-968.30108
-968.30108
-968.30108
-968.30108
-968.30108
-968.30108
-968.30108
-968.30108
-968.30108
-968.30108
-968.30108
-968.30108
-968.30108
-968.30108
-968.30108
-968.30108
-968.30108
-968.30108
-968.30108
-968.30108
-968.30108
-968.30108
-968.30108
-968.30108
-968.30108
-968.30108
-968.30108
-968.30108
-968.30108
-968.30108
-968.30108
-968.30108
-968.30108
-968.30108
-968.30108
-968.30109
-968.30109
-968.30109
-968.30109
-968.30109
-968.30109
-968.30109
-968.30109
-968.30109
-968.30109
-968.30109
-968.30109
-968.30109
-968.30109
-968.30109
-968.30109
-968.30109
-968.30109
-968.30109
-968.30109
-968.30109
-968.30109
-968.30109
-968.30109
-968.30109
-968.30109
-968.30109
-968.30109
-968.30109
-968.30109
-968.30109
-968.30109
-968.30109
-968.30109
-968.30109
-968.30109
-968.30109
-968.30109
-968.30109
-968.30109
-968.30109
-968.30109
-968.30109
-968.30109
-968.30109
-968.30109
-968.30109
-968.30109
-968.30109
-968.30109
-968.30109
-968.30109
-968.30109
-968.30109
-968.30109
-968.30109
-968.30109
-968.30109
-968.30109
-968.30109
-968.30109
-968.30109
-968.30109
-968.30109
-968.30109
-968.30109
-968.30109
-968.30109
-968.30109
-968.30109
-968.30109
-968.30109
-968.30109
-968.30109
-968.30109
-968.30109
-968.30109
-968.30109
-968.30109
-968.30109
-968.30109
-968.30109
-968.30109
-968.30109
-968.30109
-968.30109
-968.30109
-968.30109
-968.30109
-968.30109
-968.30109
-968.30109
-968.30109
-968.30109
-968.30109
-968.30109
-968.30109
-968.30109
-968.30109
-968.30109
-968.30109
-968.30109
-968.30109
-968.30109
-968.30109
-968.30109
-968.30109
-968.30109
-968.30109
-968.30109
-968.30109
-968.30109
-968.30109
-968.30109
-968.30109
-968.30109
-968.30109
-968.30109
-968.30109
-968.30109
-968.30109
-968.30109
-968.30109
-968.30109
-968.30109
-968.30109
-968.30109
-968.30109
-968.30109
-968.30109
-968.30109
-968.30109
-968.30109
-968.30109
-968.30109
-968.30109
-968.30109
-968.30109
-968.30109
-968.30109
-968.30109
-968.30109
-968.30109
-968.30109
-968.30109
-968.30109
-968.30109
-968.30109
-968.30109
-968.30109
-968.30109
-968.30109
-968.30109
-968.30109
-968.30109
-968.30109
-968.30109
-968.30109
-968.30109
-968.30109
-968.30109
-968.30109
-968.30109
-968.30109
-968.30109
-968.30109
-968.30109
-968.30109
-968.30109
-968.30109
-968.30109
-968.30109
-968.30109
-968.30109
-968.30109
-968.30109
-968.30109
-968.30109
-968.30109
-968.30109
-968.30109
-968.30109
-968.30109
-968.30109
-968.30109
-968.30109
-968.30109
-968.30109
-968.30109
-968.30109
-968.30109
-968.30109
-968.30109
-968.30109
-968.30109
-968.30109
-968.30109
-968.30109
-968.30109
-968.30109
-968.30109
-968.30109
-968.30109
-968.30109
-968.30109
-968.30109
-968.30109
-968.30109
-968.30109
-968.30109
-968.30109
-968.30109
-968.30109
-968.30109
-968.30109
-968.30109
-968.30109
-968.30109
-968.30109
-968.30109
-968.30109
-968.30109
-968.30109
-968.30109
-968.30109
-968.30109
-968.30109
-968.30109
-968.30109
-968.30109
-968.30109
-968.30109
-968.30109
-968.30109
-968.30109
-968.30109
-968.30109
-968.30109
-968.30109
-968.30109
-968.30109
-968.30109
-968.30109
-968.30109
-968.30109
-968.30109
-968.30109
-968.30109
-968.30109
-968.30109
-968.30109
-968.30109
-968.30109
-968.30109
-968.30109
-968.30109
-968.30109
-968.30109
-968.30109
-968.30109
-968.30109
-968.30109
-968.30109
-968.30109
-968.30109
-968.30109
-968.30109
-968.30109
-968.30109
-968.30109
-968.30109
-968.30109
-968.30109
-968.30109
-968.30109
-968.30109
-968.30109
-968.30109
-968.30109
-968.30109
-968.30109
-968.30109
-968.30109
-968.30109
-968.30109
-968.30109
-968.30109
-968.30109
-968.30109
-968.30109
-968.30109
-968.30109
-968.30109
-968.30109
-968.30109
-968.30109
-968.30109
-968.30109
-968.30109
-968.30109
-968.30109
-968.30109
-968.30109
-968.30109
-968.30109
-968.30109
-968.30109
-968.30109
-968.30109
-968.30109
-968.30109
-968.30109
-968.30109
-968.30109
-968.30109
-968.30109
-968.30109
-968.30109
-968.30109
-968.30109
-968.30109
-968.30109
-968.30109
-968.30109
-968.30109
-968.30109
-968.30109
-968.30109
-968.30109
-968.30109
-968.30109
-968.30109
-968.30109
-968.30109
-968.30109
-968.30109
-968.30109
-968.30109
-968.30109
-968.30109
-968.30109
-968.30109
-968.30109
-968.30109
-968.30109
-968.30109
-968.30109
-968.30109
-968.30109
-968.30109
-968.30109
-968.30109
-968.30109
-968.30109
-968.30109
-968.30109
-968.30109
-968.30109
-968.30109
-968.30109
-968.30109
-968.30109
-968.30109
-968.30109
-968.30109
-968.30109
-968.30109
-968.30109
-968.30109
-968.30109
-968.30109
-968.30109
-968.30109
-968.30109
-968.30109
-968.30109
-968.30109
-968.30109
-968.30109
-968.30109
-968.30109
-968.30109
-968.30109
-968.30109
-968.30109
-968.30109
-968.30109
-968.30109
-968.30109
-968.30109
-968.30109
-968.30109
-968.30109
-968.30109
-968.30109
-968.30109
-968.30109
-968.30109
-968.30109
-968.30109
-968.30109
-968.30109
-968.30109
-968.30109
-968.30109
-968.30109
-968.30109
-968.30109
-968.30109
-968.30109
-968.30109
-968.30109
-968.30109
-968.30109
-968.30109
-968.30109
-968.30109
-968.30109
-968.30109
-968.30109
-968.30109
-968.30109
-968.30109
-968.30109
-968.30109
-968.30109
-968.30109
-968.30109
-968.30109
-968.30109
-968.30109
-968.30109
-968.30109
-968.30109
-968.30109
-968.30109
-968.30109
-968.30109
-968.30109
-968.30109
-968.30109
-968.30109
-968.30109
-968.30109
-968.30109
-968.30109
-968.30109
-968.30109
-968.30109
-968.30109
-968.30109
-968.30109
-968.30109
-968.30109
-968.30109
-968.30109
-968.30109
-968.30109
-968.30109
-968.30109
-968.30109
-968.30109
-968.30109
-968.30109
-968.30109
-968.30109
-968.30109
-968.30109
-968.30109
-968.30109
-968.30109
-968.30109
-968.30109
-968.30109
-968.30109
-968.30109
-968.30109
-968.30109
-968.30109
-968.30109
-968.30109
-968.30109
-968.30109
-968.30109
-968.30109
-968.30109
-968.30109
-968.30109
-968.30109
-968.30109
-968.30109
-968.30109
-968.30109
-968.30109
-968.30109
-968.30109
-968.30109
-968.30109
-968.30109
-968.30109
-968.30109
-968.30109
-968.30109
-968.30109
-968.30109
-968.30109
-968.30109
-968.30109
-968.30109
-968.30109
-968.30109
-968.30109
-968.30109
-968.30109
-968.30109
-968.30109
-968.30109
-968.30109
-968.30109
-968.30109
-968.30109
-968.30109
-968.30109
-968.30109
-968.30109
-968.30109
-968.30109
-968.30109
-968.30109
-968.30109
-968.30109
-968.30109
-968.30109
-968.30109
-968.30109
-968.30109
-968.30109
-968.30109
-968.30109
-968.30109
-968.30109
-968.30109
-968.30109
-968.30109
-968.30109
-968.30109
-968.30109
-968.30109
-968.30109
-968.30109
-968.30109
-968.30109
-968.30109
-968.30109
-968.30109
-968.30109
-968.30109
-968.30109
-968.30109
-968.30109
-968.30109
-968.30109
-968.30109
-968.30109
-968.30109
-968.30109
-968.30109
-968.30109
-968.30109
-968.30109
-968.30109
-968.30109
-968.30109
-968.30109
-968.30109
-968.30109
-968.30109
-968.30109
-968.30109
-968.30109
-968.30109
-968.30109
-968.30109
-968.30109
-968.30109
-968.30109
-968.30109
-968.30109
-968.30109
-968.30109
-968.30109
-968.30109
-968.30109
-968.30109
-968.30109
-968.30109
-968.30109
-968.30109
-968.30109
-968.30109
-968.30109
-968.30109
-968.30109
-968.30109
-968.30109
-968.30109
-968.30109
-968.30109
-968.30109
-968.30109
-968.30109
-968.30109
-968.30109
-968.30109
-968.30109
-968.30109
-968.30109
-968.30109
-968.30109
-968.30109
-968.30109
-968.30109
-968.30109
-968.3011
-968.3011
-968.3011
-968.3011
-968.3011
-968.3011
-968.3011
-968.3011
-968.3011
-968.3011
-968.3011
-968.3011
-968.3011
-968.3011
-968.3011
-968.3011
-968.3011
-968.3011
-968.3011
-968.3011
-968.3011
-968.3011
-968.3011
-968.3011
-968.3011
-968.3011
-968.3011
-968.3011
-968.3011
-968.3011
-968.3011
-968.3011
-968.3011
-968.3011
-968.3011
-968.3011
-968.3011
-968.3011
-968.3011
-968.3011
-968.3011
-968.3011
-968.3011
-968.3011
-968.3011
-968.3011
-968.3011
-968.3011
-968.3011
-968.3011
-968.3011
-968.3011
-968.3011
-968.3011
-968.3011
-968.3011
-968.3011
-968.3011
-968.3011
-968.3011
-968.3011
-968.3011
-968.3011
-968.3011
-968.3011
-968.3011
-968.3011
-968.3011
-968.3011
-968.3011
-968.3011
-968.3011
-968.3011
-968.3011
-968.3011
-968.3011
-968.3011
-968.3011
-968.3011
-968.3011
-968.3011
-968.3011
-968.3011
-968.3011
-968.3011
-968.3011
-968.3011
-968.3011
-968.3011
-968.3011
-968.3011
-968.3011
-968.3011
-968.3011
-968.3011
-968.3011
-968.3011
-968.3011
-968.3011
-968.3011
-968.3011
-968.3011
-968.3011
-968.3011
-968.3011
-968.3011
-968.3011
-968.3011
-968.3011
-968.3011
-968.3011
-968.3011
-968.3011
-968.3011
-968.3011
-968.3011
-968.3011
-968.3011
-968.3011
-968.3011
-968.3011
-968.3011
-968.3011
-968.3011
-968.3011
-968.3011
-968.3011
-968.3011
-968.3011
-968.3011
-968.3011
-968.3011
-968.3011
-968.3011
-968.3011
-968.3011
-968.3011
-968.3011
-968.3011
-968.3011
-968.3011
-968.3011
-968.3011
-968.3011
-968.3011
-968.3011
-968.3011
-968.3011
-968.3011
-968.3011
-968.3011
-968.3011
-968.3011
-968.3011
-968.3011
-968.3011
-968.3011
-968.3011
-968.3011
-968.3011
-968.3011
-968.3011
-968.3011
-968.3011
-968.3011
-968.3011
-968.3011
-968.3011
-968.3011
-968.3011
-968.3011
-968.3011
-968.3011
-968.3011
-968.3011
-968.3011
-968.3011
-968.3011
-968.3011
-968.3011
-968.3011
-968.3011
-968.3011
-968.3011
-968.3011
-968.3011
-968.3011
-968.3011
-968.3011
-968.3011
-968.3011
-968.3011
-968.3011
-968.3011
-968.3011
-968.3011
-968.3011
-968.3011
-968.3011
-968.3011
-968.3011
-968.3011
-968.3011
-968.3011
-968.3011
-968.3011
-968.3011
-968.3011
-968.3011
-968.3011
-968.3011
-968.3011
-968.3011
-968.3011
-968.3011
-968.3011
-968.3011
-968.3011
-968.3011
-968.3011
-968.3011
-968.3011
-968.3011
-968.3011
-968.3011
-968.3011
-968.3011
-968.3011
-968.3011
-968.3011
-968.3011
-968.3011
-968.3011
-968.3011
-968.3011
-968.3011
-968.3011
-968.3011
-968.3011
-968.3011
-968.3011
-968.3011
-968.3011
-968.3011
-968.3011
-968.3011
-968.3011
-968.3011
-968.3011
-968.3011
-968.3011
-968.3011
-968.3011
-968.3011
-968.3011
-968.3011
-968.3011
-968.3011
