-965.63971
-965.65537
-965.70216
-965.77495
-965.85601
-965.92594
-965.97287
-966.00752
-966.04144
-966.07861
-966.11763
-966.15428
-966.18526
-966.21289
-966.24005
-966.26761
-966.29506
-966.32119
-966.3453
-966.36816
-966.39062
-966.41294
-966.43493
-966.45623
-966.4767
-966.49651
-966.51591
-966.53497
-966.55366
-966.5719
-966.58967
-966.60704
-966.62409
-966.64086
-966.65734
-966.67352
-966.68937
-966.70494
-966.72023
-966.73527
-966.75006
-966.7646
-966.7789
-966.79297
-966.80682
-966.82045
-966.83389
-966.84712
-966.86016
-966.87302
-966.8857
-966.89819
-966.91051
-966.92266
-966.93464
-966.94646
-966.95812
-966.96963
-966.981
-966.99223
-967.00331
-967.01426
-967.02507
-967.03573
-967.04627
-967.05667
-967.06695
-967.0771
-967.08714
-967.09707
-967.10688
-967.11659
-967.12617
-967.13565
-967.14502
-967.15429
-967.16345
-967.17249
-967.18144
-967.19028
-967.19903
-967.20768
-967.21623
-967.22469
-967.23307
-967.24135
-967.24955
-967.25765
-967.26567
-967.27361
-967.28146
-967.28923
-967.29692
-967.30453
-967.31205
-967.31949
-967.32686
-967.33414
-967.34136
-967.34851
-967.35558
-967.36258
-967.36951
-967.37638
-967.38316
-967.38988
-967.39653
-967.40312
-967.40964
-967.4161
-967.42249
-967.42883
-967.43509
-967.4413
-967.44746
-967.45355
-967.45958
-967.46556
-967.47148
-967.47734
-967.48315
-967.4889
-967.4946
-967.50025
-967.50585
-967.51139
-967.51687
-967.5223
-967.52769
-967.53302
-967.53831
-967.54354
-967.54874
-967.55389
-967.559
-967.56405
-967.56906
-967.57403
-967.57894
-967.58381
-967.58864
-967.59342
-967.59817
-967.60287
-967.60753
-967.61215
-967.61673
-967.62127
-967.62577
-967.63024
-967.63466
-967.63904
-967.64339
-967.6477
-967.65198
-967.65621
-967.66041
-967.66458
-967.66871
-967.67281
-967.67687
-967.68089
-967.68488
-967.68884
-967.69277
-967.69666
-967.70053
-967.70436
-967.70816
-967.71193
-967.71567
-967.71938
-967.72306
-967.72671
-967.73033
-967.73392
-967.73749
-967.74103
-967.74454
-967.74801
-967.75146
-967.75488
-967.75827
-967.76164
-967.76498
-967.7683
-967.77159
-967.77486
-967.7781
-967.78132
-967.78451
-967.78767
-967.79081
-967.79392
-967.79701
-967.80008
-967.80312
-967.80613
-967.80913
-967.81211
-967.81506
-967.81799
-967.8209
-967.82378
-967.82665
-967.82949
-967.83231
-967.83511
-967.83789
-967.84065
-967.84338
-967.84611
-967.84881
-967.85149
-967.85415
-967.85679
-967.85941
-967.86202
-967.8646
-967.86716
-967.86971
-967.87224
-967.87475
-967.87724
-967.87972
-967.88218
-967.88461
-967.88703
-967.88943
-967.89182
-967.89419
-967.89654
-967.89888
-967.9012
-967.90351
-967.9058
-967.90807
-967.91032
-967.91256
-967.91479
-967.917
-967.9192
-967.92138
-967.92355
-967.9257
-967.92784
-967.92996
-967.93207
-967.93416
-967.93624
-967.93831
-967.94036
-967.9424
-967.94442
-967.94643
-967.94843
-967.95041
-967.95238
-967.95433
-967.95627
-967.9582
-967.96012
-967.96202
-967.96392
-967.9658
-967.96767
-967.96952
-967.97136
-967.97319
-967.97501
-967.97681
-967.97861
-967.98039
-967.98215
-967.98391
-967.98565
-967.98738
-967.9891
-967.99082
-967.99253
-967.99422
-967.99591
-967.99758
-967.99924
-968.00088
-968.00252
-968.00414
-968.00576
-968.00736
-968.00896
-968.01054
-968.01211
-968.01368
-968.01523
-968.01678
-968.01831
-968.01984
-968.02136
-968.02287
-968.02437
-968.02586
-968.02733
-968.0288
-968.03026
-968.0317
-968.03314
-968.03458
-968.036
-968.0374
-968.0388
-968.0402
-968.04158
-968.04296
-968.04433
-968.04569
-968.04704
-968.04838
-968.04972
-968.05104
-968.05236
-968.05367
-968.05498
-968.05627
-968.05756
-968.05884
-968.06011
-968.06138
-968.06264
-968.06388
-968.06513
-968.06636
-968.06758
-968.0688
-968.07001
-968.07122
-968.07241
-968.07361
-968.07479
-968.07596
-968.07713
-968.07829
-968.07945
-968.0806
-968.08174
-968.08288
-968.08401
-968.08513
-968.08624
-968.08735
-968.08845
-968.08954
-968.09063
-968.09171
-968.09279
-968.09386
-968.09492
-968.09597
-968.09702
-968.09807
-968.0991
-968.10013
-968.10116
-968.10218
-968.10319
-968.1042
-968.10521
-968.10621
-968.1072
-968.10819
-968.10917
-968.11014
-968.11111
-968.11208
-968.11303
-968.11398
-968.11493
-968.11586
-968.1168
-968.11773
-968.11865
-968.11957
-968.12049
-968.1214
-968.1223
-968.1232
-968.12409
-968.12498
-968.12586
-968.12673
-968.1276
-968.12847
-968.12933
-968.13019
-968.13105
-968.13189
-968.13274
-968.13357
-968.1344
-968.13523
-968.13606
-968.13688
-968.13769
-968.1385
-968.13931
-968.1401
-968.1409
-968.14169
-968.14247
-968.14326
-968.14404
-968.14481
-968.14558
-968.14634
-968.14711
-968.14786
-968.14861
-968.14936
-968.1501
-968.15084
-968.15157
-968.15231
-968.15304
-968.15376
-968.15448
-968.1552
-968.15591
-968.15661
-968.15731
-968.15801
-968.1587
-968.1594
-968.16009
-968.16077
-968.16145
-968.16213
-968.1628
-968.16346
-968.16412
-968.16478
-968.16544
-968.16609
-968.16674
-968.16739
-968.16803
-968.16866
-968.1693
-968.16993
-968.17056
-968.17119
-968.17181
-968.17242
-968.17304
-968.17365
-968.17425
-968.17486
-968.17546
-968.17606
-968.17666
-968.17725
-968.17784
-968.17842
-968.179
-968.17958
-968.18016
-968.18073
-968.1813
-968.18187
-968.18243
-968.18299
-968.18355
-968.18411
-968.18466
-968.18521
-968.18575
-968.1863
-968.18684
-968.18738
-968.18791
-968.18844
-968.18897
-968.18949
-968.19001
-968.19053
-968.19105
-968.19156
-968.19207
-968.19258
-968.19309
-968.19359
-968.1941
-968.1946
-968.19509
-968.19559
-968.19608
-968.19656
-968.19705
-968.19753
-968.19802
-968.19849
-968.19897
-968.19944
-968.19991
-968.20037
-968.20084
-968.2013
-968.20177
-968.20222
-968.20268
-968.20313
-968.20358
-968.20403
-968.20447
-968.20492
-968.20536
-968.20579
-968.20623
-968.20666
-968.20709
-968.20753
-968.20795
-968.20838
-968.20881
-968.20923
-968.20965
-968.21006
-968.21048
-968.21089
-968.2113
-968.21171
-968.21211
-968.21252
-968.21291
-968.21331
-968.21371
-968.2141
-968.21449
-968.21488
-968.21527
-968.21565
-968.21603
-968.21641
-968.21679
-968.21717
-968.21755
-968.21793
-968.2183
-968.21868
-968.21905
-968.21941
-968.21978
-968.22014
-968.2205
-968.22086
-968.22122
-968.22157
-968.22193
-968.22228
-968.22263
-968.22298
-968.22333
-968.22367
-968.22402
-968.22436
-968.2247
-968.22504
-968.22538
-968.22571
-968.22605
-968.22638
-968.22671
-968.22704
-968.22736
-968.22769
-968.22801
-968.22833
-968.22865
-968.22897
-968.22929
-968.2296
-968.22992
-968.23023
-968.23054
-968.23086
-968.23117
-968.23147
-968.23178
-968.23208
-968.23238
-968.23268
-968.23298
-968.23328
-968.23358
-968.23388
-968.23417
-968.23446
-968.23475
-968.23504
-968.23532
-968.23561
-968.2359
-968.23618
-968.23646
-968.23674
-968.23702
-968.2373
-968.23757
-968.23785
-968.23812
-968.23839
-968.23866
-968.23893
-968.2392
-968.23947
-968.23973
-968.24
-968.24026
-968.24052
-968.24078
-968.24104
-968.2413
-968.24156
-968.24181
-968.24207
-968.24233
-968.24258
-968.24283
-968.24308
-968.24333
-968.24358
-968.24382
-968.24407
-968.24431
-968.24456
-968.2448
-968.24504
-968.24528
-968.24552
-968.24576
-968.24599
-968.24623
-968.24646
-968.24669
-968.24693
-968.24716
-968.24739
-968.24761
-968.24784
-968.24807
-968.2483
-968.24852
-968.24874
-968.24897
-968.24919
-968.24941
-968.24962
-968.24984
-968.25006
-968.25028
-968.2505
-968.25071
-968.25092
-968.25113
-968.25135
-968.25155
-968.25176
-968.25197
-968.25218
-968.25238
-968.25259
-968.25279
-968.25299
-968.2532
-968.2534
-968.2536
-968.2538
-968.254
-968.25419
-968.25439
-968.25459
-968.25478
-968.25498
-968.25517
-968.25536
-968.25555
-968.25574
-968.25593
-968.25612
-968.2563
-968.25649
-968.25667
-968.25686
-968.25704
-968.25723
-968.25741
-968.25759
-968.25777
-968.25795
-968.25813
-968.25831
-968.25849
-968.25867
-968.25884
-968.25902
-968.25919
-968.25936
-968.25954
-968.25971
-968.25988
-968.26005
-968.26022
-968.26039
-968.26055
-968.26072
-968.26089
-968.26105
-968.26122
-968.26138
-968.26155
-968.26171
-968.26187
-968.26203
-968.26219
-968.26235
-968.26251
-968.26267
-968.26283
-968.26298
-968.26314
-968.2633
-968.26345
-968.2636
-968.26376
-968.26391
-968.26406
-968.26421
-968.26436
-968.26451
-968.26466
-968.26481
-968.26496
-968.2651
-968.26525
-968.2654
-968.26554
-968.26569
-968.26583
-968.26598
-968.26612
-968.26626
-968.2664
-968.26654
-968.26668
-968.26682
-968.26695
-968.26709
-968.26723
-968.26737
-968.2675
-968.26764
-968.26778
-968.26791
-968.26804
-968.26818
-968.26831
-968.26844
-968.26857
-968.2687
-968.26883
-968.26896
-968.26909
-968.26922
-968.26934
-968.26947
-968.2696
-968.26972
-968.26985
-968.26997
-968.27009
-968.27022
-968.27034
-968.27046
-968.27058
-968.2707
-968.27082
-968.27095
-968.27106
-968.27118
-968.2713
-968.27142
-968.27154
-968.27165
-968.27177
-968.27189
-968.272
-968.27212
-968.27223
-968.27235
-968.27246
-968.27257
-968.27269
-968.2728
-968.27291
-968.27302
-968.27314
-968.27324
-968.27335
-968.27346
-968.27357
-968.27368
-968.27379
-968.2739
-968.27401
-968.27411
-968.27422
-968.27432
-968.27443
-968.27453
-968.27464
-968.27474
-968.27484
-968.27494
-968.27505
-968.27515
-968.27525
-968.27535
-968.27545
-968.27555
-968.27565
-968.27575
-968.27585
-968.27595
-968.27605
-968.27615
-968.27624
-968.27634
-968.27644
-968.27653
-968.27663
-968.27672
-968.27682
-968.27691
-968.27701
-968.2771
-968.27719
-968.27729
-968.27738
-968.27747
-968.27757
-968.27766
-968.27775
-968.27784
-968.27793
-968.27802
-968.27811
-968.2782
-968.27829
-968.27838
-968.27846
-968.27855
-968.27864
-968.27873
-968.27881
-968.2789
-968.27899
-968.27907
-968.27916
-968.27924
-968.27932
-968.27941
-968.27949
-968.27958
-968.27966
-968.27975
-968.27983
-968.27991
-968.27999
-968.28008
-968.28016
-968.28024
-968.28032
-968.2804
-968.28048
-968.28056
-968.28064
-968.28072
-968.28079
-968.28087
-968.28095
-968.28103
-968.2811
-968.28118
-968.28126
-968.28133
-968.28141
-968.28149
-968.28156
-968.28164
-968.28171
-968.28179
-968.28186
-968.28193
-968.28201
-968.28208
-968.28215
-968.28223
-968.2823
-968.28237
-968.28245
-968.28252
-968.28259
-968.28266
-968.28273
-968.2828
-968.28287
-968.28294
-968.28301
-968.28308
-968.28315
-968.28322
-968.28329
-968.28336
-968.28343
-968.28349
-968.28356
-968.28363
-968.28369
-968.28376
-968.28383
-968.28389
-968.28396
-968.28402
-968.28409
-968.28415
-968.28422
-968.28428
-968.28435
-968.28441
-968.28448
-968.28454
-968.2846
-968.28467
-968.28473
-968.28479
-968.28485
-968.28492
-968.28498
-968.28504
-968.2851
-968.28516
-968.28522
-968.28529
-968.28535
-968.28541
-968.28547
-968.28553
-968.28559
-968.28565
-968.28571
-968.28577
-968.28582
-968.28588
-968.28594
-968.286
-968.28605
-968.28611
-968.28617
-968.28623
-968.28628
-968.28634
-968.28639
-968.28645
-968.28651
-968.28656
-968.28662
-968.28668
-968.28673
-968.28678
-968.28684
-968.28689
-968.28694
-968.287
-968.28705
-968.2871
-968.28716
-968.28721
-968.28726
-968.28732
-968.28737
-968.28742
-968.28747
-968.28752
-968.28757
-968.28762
-968.28768
-968.28773
-968.28778
-968.28783
-968.28788
-968.28793
-968.28798
-968.28803
-968.28808
-968.28813
-968.28818
-968.28823
-968.28827
-968.28832
-968.28837
-968.28842
-968.28847
-968.28852
-968.28856
-968.28861
-968.28866
-968.2887
-968.28875
-968.2888
-968.28885
-968.28889
-968.28894
-968.28898
-968.28903
-968.28907
-968.28912
-968.28916
-968.28921
-968.28925
-968.2893
-968.28934
-968.28939
-968.28943
-968.28948
-968.28952
-968.28956
-968.28961
-968.28965
-968.28969
-968.28974
-968.28978
-968.28982
-968.28987
-968.28991
-968.28995
-968.28999
-968.29003
-968.29007
-968.29011
-968.29016
-968.2902
-968.29024
-968.29028
-968.29032
-968.29036
-968.2904
-968.29044
-968.29048
-968.29052
-968.29056
-968.2906
-968.29063
-968.29067
-968.29071
-968.29075
-968.29079
-968.29083
-968.29086
-968.2909
-968.29094
-968.29098
-968.29102
-968.29106
-968.29109
-968.29113
-968.29116
-968.2912
-968.29124
-968.29127
-968.29131
-968.29134
-968.29138
-968.29142
-968.29145
-968.29149
-968.29152
-968.29156
-968.29159
-968.29163
-968.29166
-968.2917
-968.29173
-968.29177
-968.2918
-968.29183
-968.29187
-968.2919
-968.29194
-968.29197
-968.292
-968.29204
-968.29207
-968.2921
-968.29213
-968.29217
-968.2922
-968.29223
-968.29226
-968.2923
-968.29233
-968.29236
-968.29239
-968.29242
-968.29245
-968.29249
-968.29252
-968.29255
-968.29258
-968.29261
-968.29264
-968.29267
-968.2927
-968.29273
-968.29276
-968.29279
-968.29282
-968.29285
-968.29288
-968.29291
-968.29294
-968.29297
-968.293
-968.29302
-968.29305
-968.29308
-968.29311
-968.29314
-968.29317
-968.2932
-968.29322
-968.29325
-968.29328
-968.29331
-968.29333
-968.29336
-968.29339
-968.29341
-968.29344
-968.29347
-968.2935
-968.29352
-968.29355
-968.29358
-968.2936
-968.29363
-968.29365
-968.29368
-968.29371
-968.29373
-968.29376
-968.29378
-968.29381
-968.29384
-968.29386
-968.29389
-968.29391
-968.29394
-968.29396
-968.29399
-968.29401
-968.29404
-968.29406
-968.29409
-968.29411
-968.29413
-968.29416
-968.29418
-968.29421
-968.29423
-968.29425
-968.29428
-968.2943
-968.29432
-968.29435
-968.29437
-968.29439
-968.29441
-968.29444
-968.29446
-968.29448
-968.29451
-968.29453
-968.29455
-968.29457
-968.2946
-968.29462
-968.29464
-968.29466
-968.29468
-968.29471
-968.29473
-968.29475
-968.29477
-968.29479
-968.29481
-968.29483
-968.29485
-968.29487
-968.29489
-968.29491
-968.29493
-968.29495
-968.29498
-968.295
-968.29502
-968.29504
-968.29506
-968.29508
-968.2951
-968.29512
-968.29514
-968.29515
-968.29517
-968.29519
-968.29521
-968.29523
-968.29525
-968.29527
-968.29529
-968.29531
-968.29533
-968.29535
-968.29537
-968.29539
-968.29541
-968.29542
-968.29544
-968.29546
-968.29548
-968.2955
-968.29552
-968.29554
-968.29555
-968.29557
-968.29559
-968.29561
-968.29563
-968.29564
-968.29566
-968.29568
-968.2957
-968.29571
-968.29573
-968.29575
-968.29576
-968.29578
-968.2958
-968.29581
-968.29583
-968.29585
-968.29586
-968.29588
-968.2959
-968.29591
-968.29593
-968.29595
-968.29596
-968.29598
-968.296
-968.29601
-968.29603
-968.29604
-968.29606
-968.29608
-968.29609
-968.29611
-968.29612
-968.29614
-968.29616
-968.29617
-968.29619
-968.2962
-968.29622
-968.29623
-968.29625
-968.29626
-968.29628
-968.29629
-968.29631
-968.29632
-968.29634
-968.29635
-968.29637
-968.29638
-968.2964
-968.29641
-968.29642
-968.29644
-968.29645
-968.29647
-968.29648
-968.2965
-968.29651
-968.29652
-968.29654
-968.29655
-968.29657
-968.29658
-968.2966
-968.29661
-968.29662
-968.29664
-968.29665
-968.29666
-968.29668
-968.29669
-968.2967
-968.29672
-968.29673
-968.29674
-968.29676
-968.29677
-968.29678
-968.2968
-968.29681
-968.29682
-968.29684
-968.29685
-968.29686
-968.29687
-968.29689
-968.2969
-968.29691
-968.29693
-968.29694
-968.29695
-968.29696
-968.29697
-968.29699
-968.297
-968.29701
-968.29702
-968.29704
-968.29705
-968.29706
-968.29707
-968.29709
-968.2971
-968.29711
-968.29712
-968.29713
-968.29714
-968.29716
-968.29717
-968.29718
-968.29719
-968.2972
-968.29721
-968.29723
-968.29724
-968.29725
-968.29726
-968.29727
-968.29728
-968.29729
-968.2973
-968.29731
-968.29733
-968.29734
-968.29735
-968.29736
-968.29737
-968.29738
-968.29739
-968.2974
-968.29741
-968.29742
-968.29744
-968.29745
-968.29746
-968.29747
-968.29748
-968.29749
-968.2975
-968.29751
-968.29752
-968.29753
-968.29754
-968.29755
-968.29756
-968.29757
-968.29758
-968.29759
-968.2976
-968.29761
-968.29762
-968.29763
-968.29764
-968.29765
-968.29766
-968.29767
-968.29768
-968.29769
-968.2977
-968.29771
-968.29772
-968.29773
-968.29774
-968.29775
-968.29776
-968.29777
-968.29778
-968.29779
-968.29779
-968.2978
-968.29781
-968.29782
-968.29783
-968.29784
-968.29785
-968.29786
-968.29787
-968.29788
-968.29789
-968.2979
-968.29791
-968.29792
-968.29792
-968.29793
-968.29794
-968.29795
-968.29796
-968.29797
-968.29798
-968.29798
-968.29799
-968.298
-968.29801
-968.29802
-968.29803
-968.29804
-968.29805
-968.29805
-968.29806
-968.29807
-968.29808
-968.29809
-968.2981
-968.29811
-968.29811
-968.29812
-968.29813
-968.29814
-968.29815
-968.29815
-968.29816
-968.29817
-968.29818
-968.29819
-968.2982
-968.2982
-968.29821
-968.29822
-968.29823
-968.29824
-968.29824
-968.29825
-968.29826
-968.29827
-968.29828
-968.29828
-968.29829
-968.2983
-968.29831
-968.29831
-968.29832
-968.29833
-968.29834
-968.29834
-968.29835
-968.29836
-968.29837
-968.29837
-968.29838
-968.29839
-968.2984
-968.2984
-968.29841
-968.29842
-968.29843
-968.29843
-968.29844
-968.29845
-968.29846
-968.29846
-968.29847
-968.29848
-968.29848
-968.29849
-968.2985
-968.29851
-968.29851
-968.29852
-968.29853
-968.29853
-968.29854
-968.29855
-968.29856
-968.29856
-968.29857
-968.29858
-968.29858
-968.29859
-968.2986
-968.2986
-968.29861
-968.29862
-968.29862
-968.29863
-968.29864
-968.29864
-968.29865
-968.29866
-968.29866
-968.29867
-968.29868
-968.29868
-968.29869
-968.2987
-968.2987
-968.29871
-968.29872
-968.29872
-968.29873
-968.29874
-968.29874
-968.29875
-968.29876
-968.29876
-968.29877
-968.29878
-968.29878
-968.29879
-968.29879
-968.2988
-968.29881
-968.29881
-968.29882
-968.29882
-968.29883
-968.29884
-968.29884
-968.29885
-968.29885
-968.29886
-968.29887
-968.29887
-968.29888
-968.29888
-968.29889
-968.2989
-968.2989
-968.29891
-968.29891
-968.29892
-968.29892
-968.29893
-968.29894
-968.29894
-968.29895
-968.29895
-968.29896
-968.29897
-968.29897
-968.29898
-968.29898
-968.29899
-968.29899
-968.299
-968.29901
-968.29901
-968.29902
-968.29902
-968.29903
-968.29903
-968.29904
-968.29904
-968.29905
-968.29906
-968.29906
-968.29907
-968.29907
-968.29908
-968.29908
-968.29909
-968.29909
-968.2991
-968.2991
-968.29911
-968.29911
-968.29912
-968.29913
-968.29913
-968.29914
-968.29914
-968.29915
-968.29915
-968.29916
-968.29916
-968.29917
-968.29917
-968.29918
-968.29918
-968.29919
-968.29919
-968.2992
-968.2992
-968.29921
-968.29921
-968.29922
-968.29922
-968.29923
-968.29923
-968.29924
-968.29924
-968.29925
-968.29925
-968.29926
-968.29926
-968.29927
-968.29927
-968.29928
-968.29928
-968.29929
-968.29929
-968.2993
-968.2993
-968.2993
-968.29931
-968.29931
-968.29932
-968.29932
-968.29933
-968.29933
-968.29934
-968.29934
-968.29935
-968.29935
-968.29936
-968.29936
-968.29936
-968.29937
-968.29937
-968.29938
-968.29938
-968.29939
-968.29939
-968.2994
-968.2994
-968.29941
-968.29941
-968.29941
-968.29942
-968.29942
-968.29943
-968.29943
-968.29944
-968.29944
-968.29945
-968.29945
-968.29945
-968.29946
-968.29946
-968.29947
-968.29947
-968.29948
-968.29948
-968.29948
-968.29949
-968.29949
-968.2995
-968.2995
-968.2995
-968.29951
-968.29951
-968.29952
-968.29952
-968.29953
-968.29953
-968.29953
-968.29954
-968.29954
-968.29955
-968.29955
-968.29955
-968.29956
-968.29956
-968.29957
-968.29957
-968.29957
-968.29958
-968.29958
-968.29959
-968.29959
-968.29959
-968.2996
-968.2996
-968.2996
-968.29961
-968.29961
-968.29962
-968.29962
-968.29962
-968.29963
-968.29963
-968.29964
-968.29964
-968.29964
-968.29965
-968.29965
-968.29965
-968.29966
-968.29966
-968.29967
-968.29967
-968.29967
-968.29968
-968.29968
-968.29968
-968.29969
-968.29969
-968.29969
-968.2997
-968.2997
-968.29971
-968.29971
-968.29971
-968.29972
-968.29972
-968.29972
-968.29973
-968.29973
-968.29973
-968.29974
-968.29974
-968.29974
-968.29975
-968.29975
-968.29976
-968.29976
-968.29976
-968.29977
-968.29977
-968.29977
-968.29978
-968.29978
-968.29978
-968.29979
-968.29979
-968.29979
-968.2998
-968.2998
-968.2998
-968.29981
-968.29981
-968.29981
-968.29982
-968.29982
-968.29982
-968.29983
-968.29983
-968.29983
-968.29984
-968.29984
-968.29984
-968.29985
-968.29985
-968.29985
-968.29985
-968.29986
-968.29986
-968.29986
-968.29987
-968.29987
-968.29987
-968.29988
-968.29988
-968.29988
-968.29989
-968.29989
-968.29989
-968.2999
-968.2999
-968.2999
-968.2999
-968.29991
-968.29991
-968.29991
-968.29992
-968.29992
-968.29992
-968.29993
-968.29993
-968.29993
-968.29993
-968.29994
-968.29994
-968.29994
-968.29995
-968.29995
-968.29995
-968.29996
-968.29996
-968.29996
-968.29996
-968.29997
-968.29997
-968.29997
-968.29998
-968.29998
-968.29998
-968.29998
-968.29999
-968.29999
-968.29999
-968.29999
-968.3
-968.3
-968.3
-968.30001
-968.30001
-968.30001
-968.30001
-968.30002
-968.30002
-968.30002
-968.30003
-968.30003
-968.30003
-968.30003
-968.30004
-968.30004
-968.30004
-968.30004
-968.30005
-968.30005
-968.30005
-968.30005
-968.30006
-968.30006
-968.30006
-968.30006
-968.30007
-968.30007
-968.30007
-968.30008
-968.30008
-968.30008
-968.30008
-968.30009
-968.30009
-968.30009
-968.30009
-968.3001
-968.3001
-968.3001
-968.3001
-968.30011
-968.30011
-968.30011
-968.30011
-968.30012
-968.30012
-968.30012
-968.30012
-968.30013
-968.30013
-968.30013
-968.30013
-968.30014
-968.30014
-968.30014
-968.30014
-968.30014
-968.30015
-968.30015
-968.30015
-968.30015
-968.30016
-968.30016
-968.30016
-968.30016
-968.30017
-968.30017
-968.30017
-968.30017
-968.30018
-968.30018
-968.30018
-968.30018
-968.30018
-968.30019
-968.30019
-968.30019
-968.30019
-968.3002
-968.3002
-968.3002
-968.3002
-968.30021
-968.30021
-968.30021
-968.30021
-968.30021
-968.30022
-968.30022
-968.30022
-968.30022
-968.30022
-968.30023
-968.30023
-968.30023
-968.30023
-968.30024
-968.30024
-968.30024
-968.30024
-968.30024
-968.30025
-968.30025
-968.30025
-968.30025
-968.30025
-968.30026
-968.30026
-968.30026
-968.30026
-968.30027
-968.30027
-968.30027
-968.30027
-968.30027
-968.30028
-968.30028
-968.30028
-968.30028
-968.30028
-968.30029
-968.30029
-968.30029
-968.30029
-968.30029
-968.3003
-968.3003
-968.3003
-968.3003
-968.3003
-968.30031
-968.30031
-968.30031
-968.30031
-968.30031
-968.30032
-968.30032
-968.30032
-968.30032
-968.30032
-968.30032
-968.30033
-968.30033
-968.30033
-968.30033
-968.30033
-968.30034
-968.30034
-968.30034
-968.30034
-968.30034
-968.30035
-968.30035
-968.30035
-968.30035
-968.30035
-968.30036
-968.30036
-968.30036
-968.30036
-968.30036
-968.30036
-968.30037
-968.30037
-968.30037
-968.30037
-968.30037
-968.30037
-968.30038
-968.30038
-968.30038
-968.30038
-968.30038
-968.30039
-968.30039
-968.30039
-968.30039
-968.30039
-968.30039
-968.3004
-968.3004
-968.3004
-968.3004
-968.3004
-968.3004
-968.30041
-968.30041
-968.30041
-968.30041
-968.30041
-968.30041
-968.30042
-968.30042
-968.30042
-968.30042
-968.30042
-968.30042
-968.30043
-968.30043
-968.30043
-968.30043
-968.30043
-968.30043
-968.30044
-968.30044
-968.30044
-968.30044
-968.30044
-968.30044
-968.30045
-968.30045
-968.30045
-968.30045
-968.30045
-968.30045
-968.30045
-968.30046
-968.30046
-968.30046
-968.30046
-968.30046
-968.30046
-968.30047
-968.30047
-968.30047
-968.30047
-968.30047
-968.30047
-968.30047
-968.30048
-968.30048
-968.30048
-968.30048
-968.30048
-968.30048
-968.30049
-968.30049
-968.30049
-968.30049
-968.30049
-968.30049
-968.30049
-968.3005
-968.3005
-968.3005
-968.3005
-968.3005
-968.3005
-968.3005
-968.30051
-968.30051
-968.30051
-968.30051
-968.30051
-968.30051
-968.30051
-968.30052
-968.30052
-968.30052
-968.30052
-968.30052
-968.30052
-968.30052
-968.30053
-968.30053
-968.30053
-968.30053
-968.30053
-968.30053
-968.30053
-968.30054
-968.30054
-968.30054
-968.30054
-968.30054
-968.30054
-968.30054
-968.30054
-968.30055
-968.30055
-968.30055
-968.30055
-968.30055
-968.30055
-968.30055
-968.30055
-968.30056
-968.30056
-968.30056
-968.30056
-968.30056
-968.30056
-968.30056
-968.30057
-968.30057
-968.30057
-968.30057
-968.30057
-968.30057
-968.30057
-968.30057
-968.30058
-968.30058
-968.30058
-968.30058
-968.30058
-968.30058
-968.30058
-968.30058
-968.30058
-968.30059
-968.30059
-968.30059
-968.30059
-968.30059
-968.30059
-968.30059
-968.30059
-968.3006
-968.3006
-968.3006
-968.3006
-968.3006
-968.3006
-968.3006
-968.3006
-968.30061
-968.30061
-968.30061
-968.30061
-968.30061
-968.30061
-968.30061
-968.30061
-968.30061
-968.30062
-968.30062
-968.30062
-968.30062
-968.30062
-968.30062
-968.30062
-968.30062
-968.30063
-968.30063
-968.30063
-968.30063
-968.30063
-968.30063
-968.30063
-968.30063
-968.30063
-968.30064
-968.30064
-968.30064
-968.30064
-968.30064
-968.30064
-968.30064
-968.30064
-968.30064
-968.30064
-968.30065
-968.30065
-968.30065
-968.30065
-968.30065
-968.30065
-968.30065
-968.30065
-968.30065
-968.30066
-968.30066
-968.30066
-968.30066
-968.30066
-968.30066
-968.30066
-968.30066
-968.30066
-968.30066
-968.30067
-968.30067
-968.30067
-968.30067
-968.30067
-968.30067
-968.30067
-968.30067
-968.30067
-968.30068
-968.30068
-968.30068
-968.30068
-968.30068
-968.30068
-968.30068
-968.30068
-968.30068
-968.30068
-968.30068
-968.30069
-968.30069
-968.30069
-968.30069
-968.30069
-968.30069
-968.30069
-968.30069
-968.30069
-968.30069
-968.3007
-968.3007
-968.3007
-968.3007
-968.3007
-968.3007
-968.3007
-968.3007
-968.3007
-968.3007
-968.3007
-968.30071
-968.30071
-968.30071
-968.30071
-968.30071
-968.30071
-968.30071
-968.30071
-968.30071
-968.30071
-968.30071
-968.30072
-968.30072
-968.30072
-968.30072
-968.30072
-968.30072
-968.30072
-968.30072
-968.30072
-968.30072
-968.30072
-968.30073
-968.30073
-968.30073
-968.30073
-968.30073
-968.30073
-968.30073
-968.30073
-968.30073
-968.30073
-968.30073
-968.30073
-968.30074
-968.30074
-968.30074
-968.30074
-968.30074
-968.30074
-968.30074
-968.30074
-968.30074
-968.30074
-968.30074
-968.30074
-968.30075
-968.30075
-968.30075
-968.30075
-968.30075
-968.30075
-968.30075
-968.30075
-968.30075
-968.30075
-968.30075
-968.30075
-968.30076
-968.30076
-968.30076
-968.30076
-968.30076
-968.30076
-968.30076
-968.30076
-968.30076
-968.30076
-968.30076
-968.30076
-968.30076
-968.30077
-968.30077
-968.30077
-968.30077
-968.30077
-968.30077
-968.30077
-968.30077
-968.30077
-968.30077
-968.30077
-968.30077
-968.30077
-968.30078
-968.30078
-968.30078
-968.30078
-968.30078
-968.30078
-968.30078
-968.30078
-968.30078
-968.30078
-968.30078
-968.30078
-968.30078
-968.30079
-968.30079
-968.30079
-968.30079
-968.30079
-968.30079
-968.30079
-968.30079
-968.30079
-968.30079
-968.30079
-968.30079
-968.30079
-968.30079
-968.3008
-968.3008
-968.3008
-968.3008
-968.3008
-968.3008
-968.3008
-968.3008
-968.3008
-968.3008
-968.3008
-968.3008
-968.3008
-968.3008
-968.3008
-968.30081
-968.30081
-968.30081
-968.30081
-968.30081
-968.30081
-968.30081
-968.30081
-968.30081
-968.30081
-968.30081
-968.30081
-968.30081
-968.30081
-968.30081
-968.30082
-968.30082
-968.30082
-968.30082
-968.30082
-968.30082
-968.30082
-968.30082
-968.30082
-968.30082
-968.30082
-968.30082
-968.30082
-968.30082
-968.30082
-968.30083
-968.30083
-968.30083
-968.30083
-968.30083
-968.30083
-968.30083
-968.30083
-968.30083
-968.30083
-968.30083
-968.30083
-968.30083
-968.30083
-968.30083
-968.30083
-968.30084
-968.30084
-968.30084
-968.30084
-968.30084
-968.30084
-968.30084
-968.30084
-968.30084
-968.30084
-968.30084
-968.30084
-968.30084
-968.30084
-968.30084
-968.30084
-968.30084
-968.30085
-968.30085
-968.30085
-968.30085
-968.30085
-968.30085
-968.30085
-968.30085
-968.30085
-968.30085
-968.30085
-968.30085
-968.30085
-968.30085
-968.30085
-968.30085
-968.30085
-968.30085
-968.30086
-968.30086
-968.30086
-968.30086
-968.30086
-968.30086
-968.30086
-968.30086
-968.30086
-968.30086
-968.30086
-968.30086
-968.30086
-968.30086
-968.30086
-968.30086
-968.30086
-968.30086
-968.30087
-968.30087
-968.30087
-968.30087
-968.30087
-968.30087
-968.30087
-968.30087
-968.30087
-968.30087
-968.30087
-968.30087
-968.30087
-968.30087
-968.30087
-968.30087
-968.30087
-968.30087
-968.30087
-968.30087
-968.30088
-968.30088
-968.30088
-968.30088
-968.30088
-968.30088
-968.30088
-968.30088
-968.30088
-968.30088
-968.30088
-968.30088
-968.30088
-968.30088
-968.30088
-968.30088
-968.30088
-968.30088
-968.30088
-968.30088
-968.30089
-968.30089
-968.30089
-968.30089
-968.30089
-968.30089
-968.30089
-968.30089
-968.30089
-968.30089
-968.30089
-968.30089
-968.30089
-968.30089
-968.30089
-968.30089
-968.30089
-968.30089
-968.30089
-968.30089
-968.30089
-968.3009
-968.3009
-968.3009
-968.3009
-968.3009
-968.3009
-968.3009
-968.3009
-968.3009
-968.3009
-968.3009
-968.3009
-968.3009
-968.3009
-968.3009
-968.3009
-968.3009
-968.3009
-968.3009
-968.3009
-968.3009
-968.3009
-968.30091
-968.30091
-968.30091
-968.30091
-968.30091
-968.30091
-968.30091
-968.30091
-968.30091
-968.30091
-968.30091
-968.30091
-968.30091
-968.30091
-968.30091
-968.30091
-968.30091
-968.30091
-968.30091
-968.30091
-968.30091
-968.30091
-968.30091
-968.30091
-968.30092
-968.30092
-968.30092
-968.30092
-968.30092
-968.30092
-968.30092
-968.30092
-968.30092
-968.30092
-968.30092
-968.30092
-968.30092
-968.30092
-968.30092
-968.30092
-968.30092
-968.30092
-968.30092
-968.30092
-968.30092
-968.30092
-968.30092
-968.30092
-968.30093
-968.30093
-968.30093
-968.30093
-968.30093
-968.30093
-968.30093
-968.30093
-968.30093
-968.30093
-968.30093
-968.30093
-968.30093
-968.30093
-968.30093
-968.30093
-968.30093
-968.30093
-968.30093
-968.30093
-968.30093
-968.30093
-968.30093
-968.30093
-968.30093
-968.30093
-968.30093
-968.30094
-968.30094
-968.30094
-968.30094
-968.30094
-968.30094
-968.30094
-968.30094
-968.30094
-968.30094
-968.30094
-968.30094
-968.30094
-968.30094
-968.30094
-968.30094
-968.30094
-968.30094
-968.30094
-968.30094
-968.30094
-968.30094
-968.30094
-968.30094
-968.30094
-968.30094
-968.30094
-968.30094
-968.30095
-968.30095
-968.30095
-968.30095
-968.30095
-968.30095
-968.30095
-968.30095
-968.30095
-968.30095
-968.30095
-968.30095
-968.30095
-968.30095
-968.30095
-968.30095
-968.30095
-968.30095
-968.30095
-968.30095
-968.30095
-968.30095
-968.30095
-968.30095
-968.30095
-968.30095
-968.30095
-968.30095
-968.30095
-968.30095
-968.30095
-968.30096
-968.30096
-968.30096
-968.30096
-968.30096
-968.30096
-968.30096
-968.30096
-968.30096
-968.30096
-968.30096
-968.30096
-968.30096
-968.30096
-968.30096
-968.30096
-968.30096
-968.30096
-968.30096
-968.30096
-968.30096
-968.30096
-968.30096
-968.30096
-968.30096
-968.30096
-968.30096
-968.30096
-968.30096
-968.30096
-968.30096
-968.30096
-968.30096
-968.30097
-968.30097
-968.30097
-968.30097
-968.30097
-968.30097
-968.30097
-968.30097
-968.30097
-968.30097
-968.30097
-968.30097
-968.30097
-968.30097
-968.30097
-968.30097
-968.30097
-968.30097
-968.30097
-968.30097
-968.30097
-968.30097
-968.30097
-968.30097
-968.30097
-968.30097
-968.30097
-968.30097
-968.30097
-968.30097
-968.30097
-968.30097
-968.30097
-968.30097
-968.30097
-968.30098
-968.30098
-968.30098
-968.30098
-968.30098
-968.30098
-968.30098
-968.30098
-968.30098
-968.30098
-968.30098
-968.30098
-968.30098
-968.30098
-968.30098
-968.30098
-968.30098
-968.30098
-968.30098
-968.30098
-968.30098
-968.30098
-968.30098
-968.30098
-968.30098
-968.30098
-968.30098
-968.30098
-968.30098
-968.30098
-968.30098
-968.30098
-968.30098
-968.30098
-968.30098
-968.30098
-968.30098
-968.30098
-968.30099
-968.30099
-968.30099
-968.30099
-968.30099
-968.30099
-968.30099
-968.30099
-968.30099
-968.30099
-968.30099
-968.30099
-968.30099
-968.30099
-968.30099
-968.30099
-968.30099
-968.30099
-968.30099
-968.30099
-968.30099
-968.30099
-968.30099
-968.30099
-968.30099
-968.30099
-968.30099
-968.30099
-968.30099
-968.30099
-968.30099
-968.30099
-968.30099
-968.30099
-968.30099
-968.30099
-968.30099
-968.30099
-968.30099
-968.30099
-968.30099
-968.30099
-968.301
-968.301
-968.301
-968.301
-968.301
-968.301
-968.301
-968.301
-968.301
-968.301
-968.301
-968.301
-968.301
-968.301
-968.301
-968.301
-968.301
-968.301
-968.301
-968.301
-968.301
-968.301
-968.301
-968.301
-968.301
-968.301
-968.301
-968.301
-968.301
-968.301
-968.301
-968.301
-968.301
-968.301
-968.301
-968.301
-968.301
-968.301
-968.301
-968.301
-968.301
-968.301
-968.301
-968.301
-968.301
-968.301
-968.301
-968.30101
-968.30101
-968.30101
-968.30101
-968.30101
-968.30101
-968.30101
-968.30101
-968.30101
-968.30101
-968.30101
-968.30101
-968.30101
-968.30101
-968.30101
-968.30101
-968.30101
-968.30101
-968.30101
-968.30101
-968.30101
-968.30101
-968.30101
-968.30101
-968.30101
-968.30101
-968.30101
-968.30101
-968.30101
-968.30101
-968.30101
-968.30101
-968.30101
-968.30101
-968.30101
-968.30101
-968.30101
-968.30101
-968.30101
-968.30101
-968.30101
-968.30101
-968.30101
-968.30101
-968.30101
-968.30101
-968.30101
-968.30101
-968.30101
-968.30101
-968.30101
-968.30101
-968.30101
-968.30102
-968.30102
-968.30102
-968.30102
-968.30102
-968.30102
-968.30102
-968.30102
-968.30102
-968.30102
-968.30102
-968.30102
-968.30102
-968.30102
-968.30102
-968.30102
-968.30102
-968.30102
-968.30102
-968.30102
-968.30102
-968.30102
-968.30102
-968.30102
-968.30102
-968.30102
-968.30102
-968.30102
-968.30102
-968.30102
-968.30102
-968.30102
-968.30102
-968.30102
-968.30102
-968.30102
-968.30102
-968.30102
-968.30102
-968.30102
-968.30102
-968.30102
-968.30102
-968.30102
-968.30102
-968.30102
-968.30102
-968.30102
-968.30102
-968.30102
-968.30102
-968.30102
-968.30102
-968.30102
-968.30102
-968.30102
-968.30102
-968.30102
-968.30102
-968.30102
-968.30103
-968.30103
-968.30103
-968.30103
-968.30103
-968.30103
-968.30103
-968.30103
-968.30103
-968.30103
-968.30103
-968.30103
-968.30103
-968.30103
-968.30103
-968.30103
-968.30103
-968.30103
-968.30103
-968.30103
-968.30103
-968.30103
-968.30103
-968.30103
-968.30103
-968.30103
-968.30103
-968.30103
-968.30103
-968.30103
-968.30103
-968.30103
-968.30103
-968.30103
-968.30103
-968.30103
-968.30103
-968.30103
-968.30103
-968.30103
-968.30103
-968.30103
-968.30103
-968.30103
-968.30103
-968.30103
-968.30103
-968.30103
-968.30103
-968.30103
-968.30103
-968.30103
-968.30103
-968.30103
-968.30103
-968.30103
-968.30103
-968.30103
-968.30103
-968.30103
-968.30103
-968.30103
-968.30103
-968.30103
-968.30103
-968.30103
-968.30103
-968.30103
-968.30103
-968.30104
-968.30104
-968.30104
-968.30104
-968.30104
-968.30104
-968.30104
-968.30104
-968.30104
-968.30104
-968.30104
-968.30104
-968.30104
-968.30104
-968.30104
-968.30104
-968.30104
-968.30104
-968.30104
-968.30104
-968.30104
-968.30104
-968.30104
-968.30104
-968.30104
-968.30104
-968.30104
-968.30104
-968.30104
-968.30104
-968.30104
-968.30104
-968.30104
-968.30104
-968.30104
-968.30104
-968.30104
-968.30104
-968.30104
-968.30104
-968.30104
-968.30104
-968.30104
-968.30104
-968.30104
-968.30104
-968.30104
-968.30104
-968.30104
-968.30104
-968.30104
-968.30104
-968.30104
-968.30104
-968.30104
-968.30104
-968.30104
-968.30104
-968.30104
-968.30104
-968.30104
-968.30104
-968.30104
-968.30104
-968.30104
-968.30104
-968.30104
-968.30104
-968.30104
-968.30104
-968.30104
-968.30104
-968.30104
-968.30104
-968.30104
-968.30104
-968.30104
-968.30104
-968.30104
-968.30104
-968.30104
-968.30105
-968.30105
-968.30105
-968.30105
-968.30105
-968.30105
-968.30105
-968.30105
-968.30105
-968.30105
-968.30105
-968.30105
-968.30105
-968.30105
-968.30105
-968.30105
-968.30105
-968.30105
-968.30105
-968.30105
-968.30105
-968.30105
-968.30105
-968.30105
-968.30105
-968.30105
-968.30105
-968.30105
-968.30105
-968.30105
-968.30105
-968.30105
-968.30105
-968.30105
-968.30105
-968.30105
-968.30105
-968.30105
-968.30105
-968.30105
-968.30105
-968.30105
-968.30105
-968.30105
-968.30105
-968.30105
-968.30105
-968.30105
-968.30105
-968.30105
-968.30105
-968.30105
-968.30105
-968.30105
-968.30105
-968.30105
-968.30105
-968.30105
-968.30105
-968.30105
-968.30105
-968.30105
-968.30105
-968.30105
-968.30105
-968.30105
-968.30105
-968.30105
-968.30105
-968.30105
-968.30105
-968.30105
-968.30105
-968.30105
-968.30105
-968.30105
-968.30105
-968.30105
-968.30105
-968.30105
-968.30105
-968.30105
-968.30105
-968.30105
-968.30105
-968.30105
-968.30105
-968.30105
-968.30105
-968.30105
-968.30105
-968.30105
-968.30105
-968.30105
-968.30105
-968.30105
-968.30105
-968.30105
-968.30105
-968.30105
-968.30106
-968.30106
-968.30106
-968.30106
-968.30106
-968.30106
-968.30106
-968.30106
-968.30106
-968.30106
-968.30106
-968.30106
-968.30106
-968.30106
-968.30106
-968.30106
-968.30106
-968.30106
-968.30106
-968.30106
-968.30106
-968.30106
-968.30106
-968.30106
-968.30106
-968.30106
-968.30106
-968.30106
-968.30106
-968.30106
-968.30106
-968.30106
-968.30106
-968.30106
-968.30106
-968.30106
-968.30106
-968.30106
-968.30106
-968.30106
-968.30106
-968.30106
-968.30106
-968.30106
-968.30106
-968.30106
-968.30106
-968.30106
-968.30106
-968.30106
-968.30106
-968.30106
-968.30106
-968.30106
-968.30106
-968.30106
-968.30106
-968.30106
-968.30106
-968.30106
-968.30106
-968.30106
-968.30106
-968.30106
-968.30106
-968.30106
-968.30106
-968.30106
-968.30106
-968.30106
-968.30106
-968.30106
-968.30106
-968.30106
-968.30106
-968.30106
-968.30106
-968.30106
-968.30106
-968.30106
-968.30106
-968.30106
-968.30106
-968.30106
-968.30106
-968.30106
-968.30106
-968.30106
-968.30106
-968.30106
-968.30106
-968.30106
-968.30106
-968.30106
-968.30106
-968.30106
-968.30106
-968.30106
-968.30106
-968.30106
-968.30106
-968.30106
-968.30106
-968.30106
-968.30106
-968.30106
-968.30106
-968.30106
-968.30106
-968.30106
-968.30106
-968.30106
-968.30106
-968.30106
-968.30106
-968.30106
-968.30106
-968.30106
-968.30106
-968.30106
-968.30106
-968.30106
-968.30106
-968.30106
-968.30106
-968.30106
-968.30107
-968.30107
-968.30107
-968.30107
-968.30107
-968.30107
-968.30107
-968.30107
-968.30107
-968.30107
-968.30107
-968.30107
-968.30107
-968.30107
-968.30107
-968.30107
-968.30107
-968.30107
-968.30107
-968.30107
-968.30107
-968.30107
-968.30107
-968.30107
-968.30107
-968.30107
-968.30107
-968.30107
-968.30107
-968.30107
-968.30107
-968.30107
-968.30107
-968.30107
-968.30107
-968.30107
-968.30107
-968.30107
-968.30107
-968.30107
-968.30107
-968.30107
-968.30107
-968.30107
-968.30107
-968.30107
-968.30107
-968.30107
-968.30107
-968.30107
-968.30107
-968.30107
-968.30107
-968.30107
-968.30107
-968.30107
-968.30107
-968.30107
-968.30107
-968.30107
-968.30107
-968.30107
-968.30107
-968.30107
-968.30107
-968.30107
-968.30107
-968.30107
-968.30107
-968.30107
-968.30107
-968.30107
-968.30107
-968.30107
-968.30107
-968.30107
-968.30107
-968.30107
-968.30107
-968.30107
-968.30107
-968.30107
-968.30107
-968.30107
-968.30107
-968.30107
-968.30107
-968.30107
-968.30107
-968.30107
-968.30107
-968.30107
-968.30107
-968.30107
-968.30107
-968.30107
-968.30107
-968.30107
-968.30107
-968.30107
-968.30107
-968.30107
-968.30107
-968.30107
-968.30107
-968.30107
-968.30107
-968.30107
-968.30107
-968.30107
-968.30107
-968.30107
-968.30107
-968.30107
-968.30107
-968.30107
-968.30107
-968.30107
-968.30107
-968.30107
-968.30107
-968.30107
-968.30107
-968.30107
-968.30107
-968.30107
-968.30107
-968.30107
-968.30107
-968.30107
-968.30107
-968.30107
-968.30107
-968.30107
-968.30107
-968.30107
-968.30107
-968.30107
-968.30107
-968.30107
-968.30107
-968.30107
-968.30107
-968.30107
-968.30107
-968.30107
-968.30107
-968.30107
-968.30107
-968.30107
-968.30107
-968.30107
-968.30107
-968.30107
-968.30107
-968.30107
-968.30107
-968.30107
-968.30107
-968.30107
-968.30107
-968.30107
-968.30107
-968.30107
-968.30107
-968.30107
-968.30107
-968.30107
-968.30107
-968.30107
-968.30107
-968.30107
-968.30107
-968.30108
-968.30108
-968.30108
-968.30108
-968.30108
-968.30108
-968.30108
-968.30108
-968.30108
-968.30108
-968.30108
-968.30108
-968.30108
-968.30108
-968.30108
-968.30108
-968.30108
-968.30108
-968.30108
-968.30108
-968.30108
-968.30108
-968.30108
-968.30108
-968.30108
-968.30108
-968.30108
-968.30108
-968.30108
-968.30108
-968.30108
-968.30108
-968.30108
-968.30108
-968.30108
-968.30108
-968.30108
-968.30108
-968.30108
-968.30108
-968.30108
-968.30108
-968.30108
-968.30108
-968.30108
-968.30108
-968.30108
-968.30108
-968.30108
-968.30108
-968.30108
-968.30108
-968.30108
-968.30108
-968.30108
-968.30108
-968.30108
-968.30108
-968.30108
-968.30108
-968.30108
-968.30108
-968.30108
-968.30108
-968.30108
-968.30108
-968.30108
-968.30108
-968.30108
-968.30108
-968.30108
-968.30108
-968.30108
-968.30108
-968.30108
-968.30108
-968.30108
-968.30108
-968.30108
-968.30108
-968.30108
-968.30108
-968.30108
-968.30108
-968.30108
-968.30108
-968.30108
-968.30108
-968.30108
-968.30108
-968.30108
-968.30108
-968.30108
-968.30108
-968.30108
-968.30108
-968.30108
-968.30108
-968.30108
-968.30108
-968.30108
-968.30108
-968.30108
-968.30108
-968.30108
-968.30108
-968.30108
-968.30108
-968.30108
-968.30108
-968.30108
-968.30108
-968.30108
-968.30108
-968.30108
-968.30108
-968.30108
-968.30108
-968.30108
-968.30108
-968.30108
-968.30108
-968.30108
-968.30108
-968.30108
-968.30108
-968.30108
-968.30108
-968.30108
-968.30108
-968.30108
-968.30108
-968.30108
-968.30108
-968.30108
-968.30108
-968.30108
-968.30108
-968.30108
-968.30108
-968.30108
-968.30108
-968.30108
-968.30108
-968.30108
-968.30108
-968.30108
-968.30108
-968.30108
-968.30108
-968.30108
-968.30108
-968.30108
-968.30108
-968.30108
-968.30108
-968.30108
-968.30108
-968.30108
-968.30108
-968.30108
-968.30108
-968.30108
-968.30108
-968.30108
-968.30108
-968.30108
-968.30108
-968.30108
-968.30108
-968.30108
-968.30108
-968.30108
-968.30108
-968.30108
-968.30108
-968.30108
-968.30108
-968.30108
-968.30108
-968.30108
-968.30108
-968.30108
-968.30108
-968.30108
-968.30108
-968.30108
-968.30108
-968.30108
-968.30108
-968.30108
-968.30108
-968.30108
-968.30108
-968.30108
-968.30108
-968.30108
-968.30108
-968.30108
-968.30108
-968.30108
-968.30108
-968.30108
-968.30108
-968.30108
-968.30108
-968.30108
-968.30108
-968.30108
-968.30108
-968.30108
-968.30108
-968.30108
-968.30108
-968.30108
-968.30108
-968.30108
-968.30108
-968.30108
-968.30108
-968.30108
-968.30108
-968.30108
-968.30108
-968.30108
-968.30108
-968.30108
-968.30108
-968.30108
-968.30108
-968.30108
-968.30108
-968.30108
-968.30108
-968.30108
-968.30108
-968.30108
-968.30108
-968.30108
-968.30108
-968.30108
-968.30108
-968.30108
-968.30108
-968.30108
-968.30108
-968.30108
-968.30108
-968.30108
-968.30108
-968.30108
-968.30108
-968.30108
-968.30108
-968.30108
-968.30108
-968.30108
-968.30108
-968.30108
-968.30108
-968.30108
-968.30108
-968.30108
-968.30108
-968.30108
-968.30108
-968.30108
-968.30108
-968.30108
-968.30108
-968.30108
-968.30108
-968.30109
-968.30109
-968.30109
-968.30109
-968.30109
-968.30109
-968.30109
-968.30109
-968.30109
-968.30109
-968.30109
-968.30109
-968.30109
-968.30109
-968.30109
-968.30109
-968.30109
-968.30109
-968.30109
-968.30109
-968.30109
-968.30109
-968.30109
-968.30109
-968.30109
-968.30109
-968.30109
-968.30109
-968.30109
-968.30109
-968.30109
-968.30109
-968.30109
-968.30109
-968.30109
-968.30109
-968.30109
-968.30109
-968.30109
-968.30109
-968.30109
-968.30109
-968.30109
-968.30109
-968.30109
-968.30109
-968.30109
-968.30109
-968.30109
-968.30109
-968.30109
-968.30109
-968.30109
-968.30109
-968.30109
-968.30109
-968.30109
-968.30109
-968.30109
-968.30109
-968.30109
-968.30109
-968.30109
-968.30109
-968.30109
-968.30109
-968.30109
-968.30109
-968.30109
-968.30109
-968.30109
-968.30109
-968.30109
-968.30109
-968.30109
-968.30109
-968.30109
-968.30109
-968.30109
-968.30109
-968.30109
-968.30109
-968.30109
-968.30109
-968.30109
-968.30109
-968.30109
-968.30109
-968.30109
-968.30109
-968.30109
-968.30109
-968.30109
-968.30109
-968.30109
-968.30109
-968.30109
-968.30109
-968.30109
-968.30109
-968.30109
-968.30109
-968.30109
-968.30109
-968.30109
-968.30109
-968.30109
-968.30109
-968.30109
-968.30109
-968.30109
-968.30109
-968.30109
-968.30109
-968.30109
-968.30109
-968.30109
-968.30109
-968.30109
-968.30109
-968.30109
-968.30109
-968.30109
-968.30109
-968.30109
-968.30109
-968.30109
-968.30109
-968.30109
-968.30109
-968.30109
-968.30109
-968.30109
-968.30109
-968.30109
-968.30109
-968.30109
-968.30109
-968.30109
-968.30109
-968.30109
-968.30109
-968.30109
-968.30109
-968.30109
-968.30109
-968.30109
-968.30109
-968.30109
-968.30109
-968.30109
-968.30109
-968.30109
-968.30109
-968.30109
-968.30109
-968.30109
-968.30109
-968.30109
-968.30109
-968.30109
-968.30109
-968.30109
-968.30109
-968.30109
-968.30109
-968.30109
-968.30109
-968.30109
-968.30109
-968.30109
-968.30109
-968.30109
-968.30109
-968.30109
-968.30109
-968.30109
-968.30109
-968.30109
-968.30109
-968.30109
-968.30109
-968.30109
-968.30109
-968.30109
-968.30109
-968.30109
-968.30109
-968.30109
-968.30109
-968.30109
-968.30109
-968.30109
-968.30109
-968.30109
-968.30109
-968.30109
-968.30109
-968.30109
-968.30109
-968.30109
-968.30109
-968.30109
-968.30109
-968.30109
-968.30109
-968.30109
-968.30109
-968.30109
-968.30109
-968.30109
-968.30109
-968.30109
-968.30109
-968.30109
-968.30109
-968.30109
-968.30109
-968.30109
-968.30109
-968.30109
-968.30109
-968.30109
-968.30109
-968.30109
-968.30109
-968.30109
-968.30109
-968.30109
-968.30109
-968.30109
-968.30109
-968.30109
-968.30109
-968.30109
-968.30109
-968.30109
-968.30109
-968.30109
-968.30109
-968.30109
-968.30109
-968.30109
-968.30109
-968.30109
-968.30109
-968.30109
-968.30109
-968.30109
-968.30109
-968.30109
-968.30109
-968.30109
-968.30109
-968.30109
-968.30109
-968.30109
-968.30109
-968.30109
-968.30109
-968.30109
-968.30109
-968.30109
-968.30109
-968.30109
-968.30109
-968.30109
-968.30109
-968.30109
-968.30109
-968.30109
-968.30109
-968.30109
-968.30109
-968.30109
-968.30109
-968.30109
-968.30109
-968.30109
-968.30109
-968.30109
-968.30109
-968.30109
-968.30109
-968.30109
-968.30109
-968.30109
-968.30109
-968.30109
-968.30109
-968.30109
-968.30109
-968.30109
-968.30109
-968.30109
-968.30109
-968.30109
-968.30109
-968.30109
-968.30109
-968.30109
-968.30109
-968.30109
-968.30109
-968.30109
-968.30109
-968.30109
-968.30109
-968.30109
-968.30109
-968.30109
-968.30109
-968.30109
-968.30109
-968.30109
-968.30109
-968.30109
-968.30109
-968.30109
-968.30109
-968.30109
-968.30109
-968.30109
-968.30109
-968.30109
-968.30109
-968.30109
-968.30109
-968.30109
-968.30109
-968.30109
-968.30109
-968.30109
-968.30109
-968.30109
-968.30109
-968.30109
-968.30109
-968.30109
-968.30109
-968.30109
-968.30109
-968.30109
-968.30109
-968.30109
-968.30109
-968.30109
-968.30109
-968.30109
-968.30109
-968.30109
-968.30109
-968.30109
-968.30109
-968.30109
-968.30109
-968.30109
-968.30109
-968.30109
-968.30109
-968.30109
-968.30109
-968.30109
-968.30109
-968.30109
-968.30109
-968.30109
-968.30109
-968.30109
-968.30109
-968.30109
-968.30109
-968.30109
-968.30109
-968.30109
-968.30109
-968.30109
-968.30109
-968.30109
-968.30109
-968.30109
-968.30109
-968.30109
-968.30109
-968.30109
-968.30109
-968.30109
-968.30109
-968.30109
-968.30109
-968.30109
-968.30109
-968.30109
-968.30109
-968.30109
-968.30109
-968.30109
-968.30109
-968.30109
-968.30109
-968.30109
-968.30109
-968.30109
-968.30109
-968.30109
-968.30109
-968.30109
-968.30109
-968.30109
-968.30109
-968.30109
-968.30109
-968.30109
-968.30109
-968.30109
-968.30109
-968.30109
-968.30109
-968.30109
-968.30109
-968.30109
-968.30109
-968.30109
-968.30109
-968.30109
-968.30109
-968.30109
-968.30109
-968.30109
-968.30109
-968.30109
-968.30109
-968.30109
-968.30109
-968.30109
-968.30109
-968.30109
-968.30109
-968.30109
-968.30109
-968.30109
-968.30109
-968.30109
-968.30109
-968.30109
-968.30109
-968.30109
-968.30109
-968.30109
-968.30109
-968.30109
-968.30109
-968.30109
-968.30109
-968.30109
-968.30109
-968.30109
-968.30109
-968.30109
-968.30109
-968.30109
-968.30109
-968.30109
-968.30109
-968.30109
-968.30109
-968.30109
-968.30109
-968.30109
-968.30109
-968.30109
-968.30109
-968.30109
-968.30109
-968.30109
-968.30109
-968.30109
-968.30109
-968.30109
-968.30109
-968.30109
-968.30109
-968.30109
-968.30109
-968.30109
-968.30109
-968.30109
-968.30109
-968.30109
-968.30109
-968.30109
-968.30109
-968.30109
-968.30109
-968.30109
-968.30109
-968.30109
-968.30109
-968.30109
-968.30109
-968.30109
-968.30109
-968.30109
-968.30109
-968.30109
-968.30109
-968.30109
-968.30109
-968.30109
-968.30109
-968.30109
-968.30109
-968.30109
-968.30109
-968.30109
-968.30109
-968.30109
-968.30109
-968.30109
-968.30109
-968.30109
-968.30109
-968.30109
-968.30109
-968.30109
-968.30109
-968.30109
-968.30109
-968.30109
-968.30109
-968.30109
-968.30109
-968.30109
-968.30109
-968.30109
-968.30109
-968.30109
-968.30109
-968.30109
-968.30109
-968.30109
-968.30109
-968.30109
-968.30109
-968.30109
-968.30109
-968.30109
-968.30109
-968.30109
-968.30109
-968.30109
-968.30109
-968.30109
-968.30109
-968.30109
-968.30109
-968.30109
-968.30109
-968.30109
-968.30109
-968.30109
-968.30109
-968.30109
-968.30109
-968.30109
-968.30109
-968.30109
-968.30109
-968.30109
-968.30109
-968.30109
-968.30109
-968.30109
-968.30109
-968.30109
-968.30109
-968.30109
-968.30109
-968.30109
-968.30109
-968.30109
-968.30109
-968.30109
-968.30109
-968.30109
-968.30109
-968.30109
-968.30109
-968.30109
-968.30109
-968.30109
-968.30109
-968.30109
-968.30109
-968.30109
-968.30109
-968.30109
-968.30109
-968.30109
-968.30109
-968.30109
-968.30109
-968.30109
-968.30109
-968.30109
-968.30109
-968.30109
-968.30109
-968.30109
-968.30109
-968.30109
-968.30109
-968.30109
-968.30109
-968.30109
-968.30109
-968.30109
-968.30109
-968.30109
-968.30109
-968.30109
-968.30109
-968.3011
-968.3011
-968.3011
-968.3011
-968.3011
-968.3011
-968.3011
-968.3011
-968.3011
-968.3011
-968.3011
-968.3011
-968.3011
-968.3011
-968.3011
-968.3011
-968.3011
-968.3011
-968.3011
-968.3011
-968.3011
-968.3011
-968.3011
-968.3011
-968.3011
-968.3011
-968.3011
-968.3011
-968.3011
-968.3011
-968.3011
-968.3011
-968.3011
-968.3011
-968.3011
-968.3011
-968.3011
-968.3011
-968.3011
-968.3011
-968.3011
-968.3011
-968.3011
-968.3011
-968.3011
-968.3011
-968.3011
-968.3011
-968.3011
-968.3011
-968.3011
-968.3011
-968.3011
-968.3011
-968.3011
-968.3011
-968.3011
-968.3011
-968.3011
-968.3011
-968.3011
-968.3011
-968.3011
-968.3011
-968.3011
-968.3011
-968.3011
-968.3011
-968.3011
-968.3011
-968.3011
-968.3011
-968.3011
-968.3011
-968.3011
-968.3011
-968.3011
-968.3011
-968.3011
-968.3011
-968.3011
-968.3011
-968.3011
-968.3011
-968.3011
-968.3011
-968.3011
-968.3011
-968.3011
-968.3011
-968.3011
-968.3011
-968.3011
-968.3011
-968.3011
-968.3011
-968.3011
-968.3011
-968.3011
-968.3011
-968.3011
-968.3011
-968.3011
-968.3011
-968.3011
-968.3011
-968.3011
-968.3011
-968.3011
-968.3011
-968.3011
-968.3011
-968.3011
-968.3011
-968.3011
-968.3011
-968.3011
-968.3011
-968.3011
-968.3011
-968.3011
-968.3011
-968.3011
-968.3011
-968.3011
-968.3011
-968.3011
-968.3011
-968.3011
-968.3011
-968.3011
-968.3011
-968.3011
-968.3011
-968.3011
-968.3011
-968.3011
-968.3011
-968.3011
-968.3011
-968.3011
-968.3011
-968.3011
-968.3011
-968.3011
-968.3011
-968.3011
-968.3011
-968.3011
-968.3011
-968.3011
-968.3011
-968.3011
-968.3011
-968.3011
-968.3011
-968.3011
-968.3011
-968.3011
-968.3011
-968.3011
-968.3011
-968.3011
-968.3011
-968.3011
-968.3011
-968.3011
-968.3011
-968.3011
-968.3011
-968.3011
-968.3011
-968.3011
-968.3011
-968.3011
-968.3011
-968.3011
-968.3011
-968.3011
-968.3011
-968.3011
-968.3011
-968.3011
-968.3011
-968.3011
-968.3011
-968.3011
-968.3011
-968.3011
-968.3011
-968.3011
-968.3011
-968.3011
-968.3011
-968.3011
-968.3011
-968.3011
-968.3011
-968.3011
-968.3011
-968.3011
-968.3011
-968.3011
-968.3011
-968.3011
-968.3011
-968.3011
-968.3011
-968.3011
-968.3011
-968.3011
-968.3011
-968.3011
-968.3011
-968.3011
-968.3011
-968.3011
-968.3011
-968.3011
-968.3011
-968.3011
-968.3011
-968.3011
-968.3011
-968.3011
-968.3011
-968.3011
-968.3011
-968.3011
-968.3011
-968.3011
-968.3011
-968.3011
-968.3011
-968.3011
-968.3011
-968.3011
-968.3011
-968.3011
-968.3011
-968.3011
-968.3011
-968.3011
-968.3011
-968.3011
-968.3011
-968.3011
-968.3011
-968.3011
-968.3011
-968.3011
-968.3011
-968.3011
-968.3011
-968.3011
-968.3011
-968.3011
-968.3011
-968.3011
-968.3011
-968.3011
-968.3011
-968.3011
-968.3011
-968.3011
-968.3011
-968.3011
-968.3011
-968.3011
-968.3011
-968.3011
-968.3011
-968.3011
-968.3011
-968.3011
-968.3011
-968.3011
-968.3011
-968.3011
-968.3011
-968.3011
-968.3011
-968.3011
-968.3011
-968.3011
-968.3011
-968.3011
-968.3011
-968.3011
-968.3011
-968.3011
-968.3011
-968.3011
-968.3011
-968.3011
-968.3011
-968.3011
-968.3011
-968.3011
-968.3011
-968.3011
-968.3011
-968.3011
-968.3011
-968.3011
-968.3011
-968.3011
-968.3011
-968.3011
-968.3011
-968.3011
-968.3011
-968.3011
-968.3011
-968.3011
-968.3011
-968.3011
-968.3011
-968.3011
-968.3011
-968.3011
-968.3011
-968.3011
-968.3011
-968.3011
-968.3011
-968.3011
-968.3011
-968.3011
-968.3011
-968.3011
-968.3011
-968.3011
-968.3011
-968.3011
-968.3011
-968.3011
-968.3011
-968.3011
-968.3011
-968.3011
-968.3011
-968.3011
-968.3011
-968.3011
-968.3011
-968.3011
-968.3011
-968.3011
-968.3011
-968.3011
-968.3011
-968.3011
-968.3011
-968.3011
-968.3011
-968.3011
-968.3011
-968.3011
-968.3011
-968.3011
-968.3011
-968.3011
-968.3011
-968.3011
-968.3011
-968.3011
-968.3011
-968.3011
-968.3011
-968.3011
-968.3011
-968.3011
-968.3011
-968.3011
-968.3011
-968.3011
-968.3011
-968.3011
-968.3011
-968.3011
-968.3011
-968.3011
-968.3011
-968.3011
-968.3011
-968.3011
-968.3011
-968.3011
-968.3011
-968.3011
-968.3011
-968.3011
-968.3011
-968.3011
-968.3011
-968.3011
-968.3011
-968.3011
-968.3011
-968.3011
-968.3011
-968.3011
-968.3011
-968.3011
-968.3011
-968.3011
-968.3011
-968.3011
-968.3011
-968.3011
-968.3011
-968.3011
-968.3011
-968.3011
-968.3011
-968.3011
-968.3011
-968.3011
-968.3011
-968.3011
-968.3011
-968.3011
-968.3011
-968.3011
-968.3011
-968.3011
-968.3011
-968.3011
-968.3011
-968.3011
-968.3011
-968.3011
-968.3011
-968.3011
-968.3011
-968.3011
-968.3011
-968.3011
-968.3011
-968.3011
-968.3011
-968.3011
-968.3011
-968.3011
-968.3011
-968.3011
-968.3011
-968.3011
-968.3011
-968.3011
-968.3011
-968.3011
-968.3011
-968.3011
-968.3011
-968.3011
-968.3011
-968.3011
-968.3011
-968.3011
-968.3011
-968.3011
-968.3011
-968.3011
-968.3011
-968.3011
-968.3011
-968.3011
-968.3011
-968.3011
-968.3011
-968.3011
-968.3011
-968.3011
-968.3011
-968.3011
-968.3011
-968.3011
-968.3011
-968.3011
-968.3011
-968.3011
-968.3011
-968.3011
-968.3011
-968.3011
-968.3011
-968.3011
-968.3011
-968.3011
-968.3011
-968.3011
-968.3011
-968.3011
-968.3011
-968.3011
-968.3011
-968.3011
-968.3011
-968.3011
-968.3011
-968.3011
-968.3011
-968.3011
-968.3011
-968.3011
-968.3011
-968.3011
-968.3011
-968.3011
-968.3011
-968.3011
-968.3011
-968.3011
-968.3011
-968.3011
-968.3011
-968.3011
-968.3011
-968.3011
-968.3011
-968.3011
-968.3011
-968.3011
-968.3011
-968.3011
-968.3011
-968.3011
-968.3011
-968.3011
-968.3011
-968.3011
-968.3011
-968.3011
-968.3011
-968.3011
-968.3011
-968.3011
-968.3011
-968.3011
-968.3011
-968.3011
-968.3011
-968.3011
-968.3011
-968.3011
-968.3011
-968.3011
-968.3011
-968.3011
-968.3011
-968.3011
-968.3011
-968.3011
-968.3011
-968.3011
-968.3011
-968.3011
-968.3011
-968.3011
-968.3011
-968.3011
-968.3011
-968.3011
-968.3011
-968.3011
-968.3011
-968.3011
-968.3011
-968.3011
-968.3011
-968.3011
-968.3011
-968.3011
-968.3011
-968.3011
-968.3011
-968.3011
-968.3011
-968.3011
-968.3011
-968.3011
-968.3011
-968.3011
-968.3011
-968.3011
-968.3011
-968.3011
-968.3011
-968.3011
-968.3011
-968.3011
-968.3011
-968.3011
-968.3011
-968.3011
-968.3011
-968.3011
-968.3011
-968.3011
-968.3011
-968.3011
-968.3011
-968.3011
-968.3011
-968.3011
-968.3011
-968.3011
-968.3011
-968.3011
-968.3011
-968.3011
-968.3011
-968.3011
-968.3011
-968.3011
-968.3011
-968.3011
-968.3011
-968.3011
-968.3011
-968.3011
-968.3011
-968.3011
-968.3011
-968.3011
-968.3011
-968.3011
-968.3011
-968.3011
-968.3011
-968.3011
-968.3011
-968.3011
-968.3011
-968.3011
-968.3011
-968.3011
-968.3011
-968.3011
-968.3011
-968.3011
-968.3011
-968.3011
-968.3011
-968.3011
-968.3011
-968.3011
-968.3011
-968.3011
-968.3011
-968.3011
-968.3011
-968.3011
-968.3011
-968.3011
-968.3011
-968.3011
-968.3011
-968.3011
-968.3011
-968.3011
-968.3011
-968.3011
-968.3011
-968.3011
-968.3011
-968.3011
-968.3011
-968.3011
-968.3011
-968.3011
-968.3011
-968.3011
-968.3011
-968.3011
-968.3011
-968.3011
-968.3011
-968.3011
-968.3011
-968.3011
-968.3011
-968.3011
-968.3011
-968.3011
-968.3011
-968.3011
-968.3011
-968.3011
-968.3011
-968.3011
-968.3011
-968.3011
-968.3011
-968.3011
-968.3011
-968.3011
-968.3011
-968.3011
-968.3011
-968.3011
-968.3011
-968.3011
-968.3011
-968.3011
-968.3011
-968.3011
-968.3011
-968.3011
-968.3011
-968.3011
-968.3011
-968.3011
-968.3011
-968.3011
-968.3011
-968.3011
-968.3011
-968.3011
-968.3011
-968.3011
-968.3011
-968.3011
-968.3011
-968.3011
-968.3011
-968.3011
-968.3011
-968.3011
-968.3011
-968.3011
-968.3011
-968.3011
-968.3011
-968.3011
-968.3011
-968.3011
-968.3011
-968.3011
-968.3011
-968.3011
-968.3011
-968.3011
-968.3011
-968.3011
-968.3011
-968.3011
-968.3011
-968.3011
-968.3011
-968.3011
-968.3011
-968.3011
-968.3011
-968.3011
-968.3011
-968.3011
-968.3011
-968.3011
-968.3011
-968.3011
-968.3011
-968.3011
-968.3011
-968.3011
-968.3011
-968.3011
-968.3011
-968.3011
-968.3011
-968.3011
-968.3011
-968.3011
-968.3011
-968.3011
-968.3011
-968.3011
-968.3011
-968.3011
-968.3011
-968.3011
-968.3011
-968.3011
-968.3011
-968.3011
-968.3011
-968.3011
-968.3011
-968.3011
-968.3011
-968.3011
-968.3011
-968.3011
-968.3011
-968.3011
-968.3011
-968.3011
-968.3011
-968.3011
-968.3011
-968.3011
-968.3011
-968.3011
-968.3011
-968.3011
-968.3011
-968.3011
-968.3011
-968.3011
-968.3011
-968.3011
-968.3011
-968.3011
-968.3011
-968.3011
-968.3011
-968.3011
-968.3011
-968.3011
-968.3011
-968.3011
-968.3011
-968.3011
-968.3011
-968.3011
-968.3011
-968.3011
-968.3011
-968.3011
-968.3011
-968.3011
-968.3011
-968.3011
-968.3011
-968.3011
-968.3011
-968.3011
-968.3011
-968.3011
-968.3011
-968.3011
-968.3011
-968.3011
-968.3011
-968.3011
-968.3011
-968.3011
-968.3011
-968.3011
-968.3011
-968.3011
-968.3011
-968.3011
-968.3011
-968.3011
-968.3011
-968.3011
-968.3011
-968.3011
-968.3011
-968.3011
-968.3011
-968.3011
-968.3011
-968.3011
-968.3011
-968.3011
-968.3011
-968.3011
-968.3011
-968.3011
-968.3011
-968.3011
-968.3011
-968.3011
-968.3011
-968.3011
-968.3011
-968.3011
-968.3011
-968.3011
-968.3011
-968.3011
-968.3011
-968.3011
-968.3011
-968.3011
-968.3011
-968.3011
-968.3011
-968.3011
-968.3011
-968.3011
-968.3011
-968.3011
-968.3011
-968.3011
-968.3011
-968.3011
-968.3011
-968.3011
-968.3011
-968.3011
-968.3011
-968.3011
-968.3011
-968.3011
-968.3011
-968.3011
-968.3011
-968.3011
-968.3011
-968.3011
-968.3011
-968.3011
-968.3011
-968.3011
-968.3011
-968.3011
-968.3011
-968.3011
-968.3011
-968.3011
-968.3011
-968.3011
-968.3011
-968.3011
-968.3011
-968.3011
-968.3011
-968.3011
-968.3011
-968.3011
-968.3011
-968.3011
-968.3011
-968.3011
-968.3011
-968.3011
-968.3011
-968.3011
-968.3011
-968.3011
-968.3011
-968.3011
-968.3011
-968.3011
-968.3011
-968.3011
-968.3011
-968.3011
-968.3011
-968.3011
-968.3011
-968.3011
-968.3011
-968.3011
-968.3011
-968.3011
-968.3011
-968.3011
-968.3011
-968.3011
-968.3011
-968.3011
-968.3011
-968.3011
-968.3011
-968.3011
-968.3011
-968.3011
-968.3011
-968.3011
-968.3011
-968.3011
-968.3011
-968.3011
-968.3011
-968.3011
-968.3011
-968.3011
-968.3011
-968.3011
-968.3011
-968.3011
-968.3011
-968.3011
-968.3011
-968.3011
-968.3011
-968.3011
-968.3011
-968.3011
-968.3011
-968.3011
-968.3011
-968.3011
-968.3011
-968.3011
-968.3011
-968.3011
-968.3011
-968.3011
-968.3011
-968.3011
-968.3011
-968.3011
-968.3011
-968.3011
-968.3011
-968.3011
-968.3011
-968.3011
-968.3011
-968.3011
-968.3011
-968.3011
-968.3011
-968.3011
-968.3011
-968.3011
-968.3011
-968.3011
-968.3011
-968.3011
-968.3011
-968.3011
-968.3011
-968.3011
-968.3011
-968.3011
-968.3011
-968.3011
-968.3011
-968.3011
-968.3011
-968.3011
-968.3011
-968.3011
-968.3011
-968.3011
-968.3011
-968.3011
-968.3011
-968.3011
-968.3011
-968.3011
-968.3011
-968.3011
-968.3011
-968.3011
-968.3011
-968.3011
-968.3011
-968.3011
-968.3011
-968.3011
-968.3011
-968.3011
-968.3011
-968.3011
-968.3011
-968.3011
-968.3011
-968.3011
-968.3011
-968.3011
-968.3011
-968.3011
-968.3011
-968.3011
-968.3011
-968.3011
-968.3011
-968.3011
-968.3011
-968.3011
-968.3011
-968.3011
-968.3011
-968.3011
-968.3011
-968.3011
-968.3011
-968.3011
-968.3011
-968.3011
-968.3011
-968.3011
-968.3011
-968.3011
-968.3011
-968.3011
-968.3011
-968.3011
-968.3011
-968.3011
-968.3011
-968.3011
-968.3011
-968.3011
-968.3011
-968.3011
-968.3011
-968.3011
-968.3011
-968.3011
-968.3011
-968.3011
-968.3011
-968.3011
-968.3011
-968.3011
-968.3011
-968.3011
-968.3011
-968.3011
-968.3011
-968.3011
-968.3011
-968.3011
-968.3011
-968.3011
-968.3011
-968.3011
-968.3011
-968.3011
-968.3011
-968.3011
-968.3011
-968.3011
-968.3011
-968.3011
-968.3011
-968.3011
-968.3011
-968.3011
-968.3011
-968.3011
-968.3011
-968.3011
-968.3011
-968.3011
-968.3011
-968.3011
-968.3011
-968.3011
-968.3011
-968.3011
-968.3011
-968.3011
-968.3011
-968.3011
-968.3011
-968.3011
-968.3011
-968.3011
-968.3011
-968.3011
-968.3011
-968.3011
-968.3011
-968.3011
-968.3011
-968.3011
-968.3011
-968.3011
-968.3011
-968.3011
-968.3011
-968.3011
-968.3011
-968.3011
-968.3011
-968.3011
-968.3011
-968.3011
-968.3011
-968.3011
-968.3011
-968.3011
-968.3011
-968.3011
-968.3011
-968.3011
-968.3011
-968.3011
-968.3011
-968.3011
-968.3011
-968.3011
-968.3011
-968.3011
-968.3011
-968.3011
-968.3011
-968.3011
-968.3011
-968.3011
-968.3011
-968.3011
-968.3011
-968.3011
-968.3011
-968.3011
-968.3011
-968.3011
-968.3011
-968.3011
-968.3011
-968.3011
-968.3011
-968.3011
-968.3011
-968.3011
-968.3011
-968.3011
-968.3011
-968.3011
-968.3011
-968.3011
-968.3011
-968.3011
-968.3011
-968.3011
-968.3011
-968.3011
-968.3011
-968.3011
-968.3011
-968.3011
-968.3011
-968.3011
-968.3011
-968.3011
-968.3011
-968.3011
-968.3011
-968.3011
-968.3011
-968.3011
-968.3011
-968.3011
-968.3011
-968.3011
-968.3011
-968.3011
-968.3011
-968.3011
-968.3011
-968.3011
-968.3011
-968.3011
-968.3011
-968.3011
-968.3011
-968.3011
-968.3011
-968.3011
-968.3011
-968.3011
-968.3011
-968.3011
-968.3011
-968.3011
-968.3011
-968.3011
-968.3011
-968.3011
-968.3011
-968.3011
-968.3011
-968.3011
-968.3011
-968.3011
-968.3011
-968.3011
-968.3011
-968.3011
-968.3011
-968.3011
-968.3011
-968.3011
-968.3011
-968.3011
-968.3011
-968.3011
-968.3011
-968.3011
-968.3011
-968.3011
-968.3011
-968.3011
-968.3011
-968.3011
-968.3011
-968.3011
-968.3011
-968.3011
-968.3011
-968.3011
-968.3011
-968.3011
-968.3011
-968.3011
-968.3011
-968.3011
-968.3011
-968.3011
-968.3011
-968.3011
-968.3011
-968.3011
-968.3011
-968.3011
-968.3011
-968.3011
-968.3011
-968.3011
-968.3011
-968.3011
-968.3011
-968.3011
-968.3011
-968.3011
-968.3011
-968.3011
-968.3011
-968.3011
-968.3011
-968.3011
-968.3011
-968.3011
-968.3011
-968.3011
-968.3011
-968.3011
-968.3011
-968.3011
-968.3011
-968.3011
-968.3011
-968.3011
-968.3011
-968.3011
-968.3011
-968.3011
-968.3011
-968.3011
-968.3011
-968.3011
-968.3011
-968.3011
-968.3011
-968.3011
-968.3011
-968.3011
-968.3011
-968.3011
-968.3011
-968.3011
-968.3011
-968.3011
-968.3011
-968.3011
-968.3011
-968.3011
-968.3011
-968.3011
-968.3011
-968.3011
-968.3011
-968.3011
-968.3011
-968.3011
-968.3011
-968.3011
-968.3011
-968.3011
-968.3011
-968.3011
-968.3011
-968.3011
-968.3011
-968.3011
-968.3011
-968.3011
-968.3011
-968.3011
-968.3011
-968.3011
-968.3011
-968.3011
-968.3011
-968.3011
-968.3011
-968.3011
-968.3011
-968.3011
-968.3011
-968.3011
-968.3011
-968.3011
-968.3011
-968.3011
-968.3011
-968.3011
-968.3011
-968.3011
-968.3011
-968.3011
-968.3011
-968.3011
-968.3011
-968.3011
-968.3011
-968.3011
-968.3011
-968.3011
-968.3011
-968.3011
-968.3011
-968.3011
-968.3011
-968.3011
-968.3011
-968.3011
-968.3011
-968.3011
-968.3011
-968.3011
-968.3011
-968.3011
-968.3011
-968.3011
-968.3011
-968.3011
-968.3011
-968.3011
-968.3011
-968.3011
-968.3011
-968.3011
-968.3011
-968.3011
-968.3011
-968.3011
-968.3011
-968.3011
-968.3011
-968.3011
-968.3011
-968.3011
-968.3011
-968.3011
-968.3011
-968.3011
-968.3011
-968.3011
-968.3011
-968.3011
-968.3011
-968.3011
-968.3011
-968.3011
-968.3011
-968.3011
-968.3011
-968.3011
-968.3011
-968.3011
-968.3011
-968.3011
-968.3011
-968.3011
-968.3011
-968.3011
-968.3011
-968.3011
-968.3011
-968.3011
-968.3011
-968.3011
-968.3011
-968.3011
-968.3011
-968.3011
-968.3011
-968.3011
-968.3011
-968.3011
-968.3011
-968.3011
-968.3011
-968.3011
-968.3011
-968.3011
-968.3011
-968.3011
-968.3011
-968.3011
-968.3011
-968.3011
-968.3011
-968.3011
-968.3011
-968.3011
-968.3011
-968.3011
-968.3011
-968.3011
-968.3011
-968.3011
-968.3011
-968.3011
-968.3011
-968.3011
-968.3011
-968.3011
-968.3011
-968.3011
-968.3011
-968.3011
-968.3011
-968.3011
-968.3011
-968.3011
-968.3011
-968.3011
-968.3011
-968.3011
-968.3011
-968.3011
-968.3011
-968.3011
-968.3011
-968.3011
-968.3011
-968.3011
-968.3011
-968.3011
-968.3011
-968.3011
-968.3011
-968.3011
-968.3011
-968.3011
-968.3011
-968.3011
-968.3011
-968.3011
-968.3011
-968.3011
-968.3011
-968.3011
-968.3011
-968.3011
-968.3011
-968.3011
-968.3011
-968.3011
-968.3011
-968.3011
-968.3011
-968.3011
-968.3011
-968.3011
-968.3011
-968.3011
-968.3011
-968.3011
-968.3011
-968.3011
-968.3011
-968.3011
-968.3011
-968.3011
-968.3011
-968.3011
-968.3011
-968.3011
-968.3011
-968.3011
-968.3011
-968.3011
-968.3011
-968.3011
-968.3011
-968.3011
-968.3011
-968.3011
-968.3011
-968.3011
-968.3011
-968.3011
-968.3011
-968.3011
-968.3011
-968.3011
-968.3011
-968.3011
-968.3011
-968.3011
-968.3011
-968.3011
-968.3011
-968.3011
-968.3011
-968.3011
-968.3011
-968.3011
-968.3011
-968.3011
-968.3011
-968.3011
-968.3011
-968.3011
-968.3011
-968.3011
-968.3011
-968.3011
-968.3011
-968.3011
-968.3011
-968.3011
-968.3011
-968.3011
-968.3011
-968.3011
-968.3011
-968.3011
-968.3011
-968.3011
-968.3011
-968.3011
-968.3011
-968.3011
-968.3011
-968.3011
-968.3011
-968.3011
-968.3011
-968.3011
-968.3011
-968.3011
-968.3011
-968.3011
-968.3011
-968.3011
-968.3011
-968.3011
-968.3011
-968.3011
-968.3011
-968.3011
-968.3011
-968.3011
-968.3011
-968.3011
-968.3011
-968.3011
-968.3011
-968.3011
-968.3011
-968.3011
-968.3011
-968.3011
-968.3011
-968.3011
-968.3011
-968.3011
-968.3011
-968.3011
-968.3011
-968.3011
-968.3011
-968.3011
-968.3011
-968.3011
-968.3011
-968.3011
-968.3011
-968.3011
-968.3011
-968.3011
-968.3011
-968.3011
-968.3011
-968.3011
-968.3011
-968.3011
-968.3011
-968.3011
-968.3011
-968.3011
-968.3011
-968.3011
-968.3011
-968.3011
-968.3011
-968.3011
-968.3011
-968.3011
-968.3011
-968.3011
-968.3011
-968.3011
-968.3011
-968.3011
-968.3011
-968.3011
-968.3011
-968.3011
-968.3011
-968.3011
-968.3011
-968.3011
-968.3011
-968.3011
-968.3011
-968.3011
-968.3011
-968.3011
-968.3011
-968.3011
-968.3011
-968.3011
-968.3011
-968.3011
-968.3011
-968.3011
-968.3011
-968.3011
-968.3011
-968.3011
-968.3011
-968.3011
-968.3011
-968.3011
-968.3011
-968.3011
-968.3011
-968.3011
-968.3011
-968.3011
-968.3011
-968.3011
-968.3011
-968.3011
-968.3011
-968.3011
-968.3011
-968.3011
-968.3011
-968.3011
-968.3011
-968.3011
-968.3011
-968.3011
-968.3011
-968.3011
-968.3011
-968.3011
-968.3011
-968.3011
-968.3011
-968.3011
-968.3011
-968.3011
-968.3011
-968.3011
-968.3011
-968.3011
-968.3011
-968.3011
-968.3011
-968.3011
-968.3011
-968.3011
-968.3011
-968.3011
-968.3011
-968.3011
-968.3011
-968.3011
-968.3011
-968.3011
-968.3011
-968.3011
-968.3011
-968.3011
-968.3011
-968.3011
-968.3011
-968.3011
-968.3011
-968.3011
-968.3011
-968.3011
-968.3011
-968.3011
-968.3011
-968.3011
-968.3011
-968.3011
-968.3011
-968.3011
-968.3011
-968.3011
-968.3011
-968.3011
-968.3011
-968.3011
-968.3011
-968.3011
-968.3011
-968.3011
-968.3011
-968.3011
-968.3011
-968.3011
-968.3011
-968.3011
-968.3011
-968.3011
-968.3011
-968.3011
-968.3011
-968.3011
-968.3011
-968.3011
-968.3011
-968.3011
-968.3011
-968.3011
-968.3011
-968.3011
-968.3011
-968.3011
-968.3011
-968.3011
-968.3011
-968.3011
-968.3011
-968.3011
-968.3011
-968.3011
-968.3011
-968.3011
-968.3011
-968.3011
-968.3011
-968.3011
-968.3011
-968.3011
-968.3011
-968.3011
-968.3011
-968.3011
-968.3011
-968.3011
-968.3011
-968.3011
-968.3011
-968.3011
-968.3011
-968.3011
-968.3011
-968.3011
-968.3011
-968.3011
-968.3011
-968.3011
-968.3011
-968.3011
-968.3011
-968.3011
-968.3011
-968.3011
-968.3011
-968.3011
-968.3011
-968.3011
-968.3011
-968.3011
-968.3011
-968.3011
-968.3011
-968.3011
-968.3011
-968.3011
-968.3011
-968.3011
-968.3011
-968.3011
-968.3011
-968.3011
-968.3011
-968.3011
-968.3011
-968.3011
-968.3011
-968.3011
-968.3011
-968.3011
-968.3011
-968.3011
-968.3011
-968.3011
-968.3011
-968.3011
-968.3011
-968.3011
-968.3011
-968.3011
-968.3011
-968.3011
-968.3011
-968.3011
-968.3011
-968.3011
-968.3011
-968.3011
-968.3011
-968.3011
-968.3011
-968.3011
-968.3011
-968.3011
-968.3011
-968.3011
-968.3011
-968.3011
-968.3011
-968.3011
-968.3011
-968.3011
-968.3011
-968.3011
-968.3011
-968.3011
-968.3011
-968.3011
-968.3011
-968.3011
-968.3011
-968.3011
-968.3011
-968.3011
-968.3011
-968.3011
-968.3011
-968.3011
-968.3011
-968.3011
-968.3011
-968.3011
-968.3011
-968.3011
-968.3011
-968.3011
-968.3011
-968.3011
-968.3011
-968.3011
-968.3011
-968.3011
-968.3011
-968.3011
-968.3011
-968.3011
-968.3011
-968.3011
-968.3011
-968.3011
-968.3011
-968.3011
-968.3011
-968.3011
-968.3011
-968.3011
-968.3011
-968.3011
-968.3011
-968.3011
-968.3011
-968.3011
-968.3011
-968.3011
-968.3011
-968.3011
-968.3011
-968.3011
-968.3011
-968.3011
-968.3011
-968.3011
-968.3011
-968.3011
-968.3011
-968.3011
-968.3011
-968.3011
-968.3011
-968.3011
-968.3011
-968.3011
-968.3011
-968.3011
-968.3011
-968.3011
-968.3011
-968.3011
-968.3011
-968.3011
-968.3011
-968.3011
-968.3011
-968.3011
-968.3011
-968.3011
-968.3011
-968.3011
-968.3011
-968.3011
-968.3011
-968.3011
-968.3011
-968.3011
-968.3011
-968.3011
-968.3011
-968.3011
-968.3011
-968.3011
-968.3011
-968.3011
-968.3011
-968.3011
-968.3011
-968.3011
-968.3011
-968.3011
-968.3011
-968.3011
-968.3011
-968.3011
-968.3011
-968.3011
-968.3011
-968.3011
-968.3011
-968.3011
-968.3011
-968.3011
-968.3011
-968.3011
-968.3011
-968.3011
-968.3011
-968.3011
-968.3011
-968.3011
-968.3011
-968.3011
-968.3011
-968.3011
-968.3011
-968.3011
-968.3011
-968.3011
-968.3011
-968.3011
-968.3011
-968.3011
-968.3011
-968.3011
-968.3011
-968.3011
-968.3011
-968.3011
-968.3011
-968.3011
-968.3011
-968.3011
-968.3011
-968.3011
-968.3011
-968.3011
-968.3011
-968.3011
-968.3011
-968.3011
-968.3011
-968.3011
-968.3011
-968.3011
-968.3011
-968.3011
-968.3011
-968.3011
-968.3011
-968.3011
-968.3011
-968.3011
-968.3011
-968.3011
-968.3011
-968.3011
-968.3011
-968.3011
-968.3011
-968.3011
-968.3011
-968.3011
-968.3011
-968.3011
-968.3011
-968.3011
-968.3011
-968.3011
-968.3011
-968.3011
-968.3011
-968.3011
-968.3011
-968.3011
-968.3011
-968.3011
-968.3011
-968.3011
-968.3011
-968.3011
-968.3011
-968.3011
-968.3011
-968.3011
-968.3011
-968.3011
-968.3011
-968.3011
-968.3011
-968.3011
-968.3011
-968.3011
-968.3011
-968.3011
-968.3011
-968.3011
-968.3011
-968.3011
-968.3011
-968.3011
-968.3011
-968.3011
-968.3011
-968.3011
-968.3011
-968.3011
-968.3011
-968.3011
-968.3011
-968.3011
-968.3011
-968.3011
-968.3011
-968.3011
-968.3011
-968.3011
-968.3011
-968.3011
-968.3011
-968.3011
-968.3011
-968.3011
-968.3011
-968.3011
-968.3011
-968.3011
-968.3011
-968.3011
-968.3011
-968.3011
-968.3011
-968.3011
-968.3011
-968.3011
-968.3011
-968.3011
-968.3011
-968.3011
-968.3011
-968.3011
-968.3011
-968.3011
-968.3011
-968.3011
-968.3011
-968.3011
-968.3011
-968.3011
-968.3011
-968.3011
-968.3011
-968.3011
-968.3011
-968.3011
-968.3011
-968.3011
-968.3011
-968.3011
-968.3011
-968.3011
-968.3011
-968.3011
-968.3011
-968.3011
-968.3011
-968.3011
-968.3011
-968.3011
-968.3011
-968.3011
-968.3011
-968.3011
-968.3011
-968.3011
-968.3011
-968.3011
-968.3011
-968.3011
-968.3011
-968.3011
-968.3011
-968.3011
-968.3011
-968.3011
-968.3011
-968.3011
-968.3011
-968.3011
-968.3011
-968.3011
-968.3011
-968.3011
-968.3011
-968.3011
-968.3011
-968.3011
-968.3011
-968.3011
-968.3011
-968.3011
-968.3011
-968.3011
-968.3011
-968.3011
-968.3011
-968.3011
-968.3011
-968.3011
-968.3011
-968.3011
-968.3011
-968.3011
-968.3011
-968.3011
-968.3011
-968.3011
-968.3011
-968.3011
-968.3011
-968.3011
-968.3011
-968.3011
-968.3011
-968.3011
-968.3011
-968.3011
-968.3011
-968.3011
-968.3011
-968.3011
-968.3011
-968.3011
-968.3011
-968.3011
-968.3011
-968.3011
-968.3011
-968.3011
-968.3011
-968.3011
-968.3011
-968.3011
-968.3011
-968.3011
-968.3011
-968.3011
-968.3011
-968.3011
-968.3011
-968.3011
-968.3011
-968.3011
-968.3011
-968.3011
-968.3011
-968.3011
-968.3011
-968.3011
-968.3011
-968.3011
-968.3011
-968.3011
-968.3011
-968.3011
-968.3011
-968.3011
-968.3011
-968.3011
-968.3011
-968.3011
-968.3011
-968.3011
-968.3011
-968.3011
-968.3011
-968.3011
-968.3011
-968.3011
-968.3011
-968.3011
-968.3011
-968.3011
-968.3011
-968.3011
-968.3011
-968.3011
-968.3011
-968.3011
-968.3011
-968.3011
-968.3011
-968.3011
-968.3011
-968.3011
-968.3011
-968.3011
-968.3011
-968.3011
-968.3011
-968.3011
-968.3011
-968.3011
-968.3011
-968.3011
-968.3011
-968.3011
-968.3011
-968.3011
-968.3011
-968.3011
-968.3011
-968.3011
-968.3011
-968.3011
-968.3011
-968.3011
-968.3011
-968.3011
-968.3011
-968.3011
-968.3011
-968.3011
-968.3011
-968.3011
-968.3011
-968.3011
-968.3011
-968.3011
-968.3011
-968.3011
-968.3011
-968.3011
-968.3011
-968.3011
-968.3011
-968.3011
-968.3011
-968.3011
-968.3011
-968.3011
-968.3011
-968.3011
-968.3011
-968.3011
-968.3011
-968.3011
-968.3011
-968.3011
-968.3011
-968.3011
-968.3011
-968.3011
-968.3011
-968.3011
-968.3011
-968.3011
-968.3011
-968.3011
-968.3011
-968.3011
-968.3011
-968.3011
-968.3011
-968.3011
-968.3011
-968.3011
-968.3011
-968.3011
-968.3011
-968.3011
-968.3011
-968.3011
-968.3011
-968.3011
-968.3011
-968.3011
-968.3011
-968.3011
-968.3011
-968.3011
-968.3011
-968.3011
-968.3011
-968.3011
-968.3011
-968.3011
-968.3011
-968.3011
-968.3011
-968.3011
-968.3011
-968.3011
-968.3011
-968.3011
-968.3011
-968.3011
-968.3011
-968.3011
-968.3011
-968.3011
-968.3011
-968.3011
-968.3011
-968.3011
-968.3011
-968.3011
-968.3011
-968.3011
-968.3011
-968.3011
-968.3011
-968.3011
-968.3011
-968.3011
-968.3011
-968.3011
-968.3011
-968.3011
-968.3011
-968.3011
-968.3011
-968.3011
-968.3011
-968.3011
-968.3011
-968.3011
-968.3011
-968.3011
-968.3011
-968.3011
-968.3011
-968.3011
-968.3011
-968.3011
-968.3011
-968.3011
-968.3011
-968.3011
-968.3011
-968.3011
-968.3011
-968.3011
-968.3011
-968.3011
-968.3011
-968.3011
-968.3011
-968.3011
-968.3011
-968.3011
-968.3011
-968.3011
-968.3011
-968.3011
-968.3011
-968.3011
-968.3011
-968.3011
-968.3011
-968.3011
-968.3011
-968.3011
-968.3011
-968.3011
-968.3011
-968.3011
-968.3011
-968.3011
-968.3011
-968.3011
-968.3011
-968.3011
-968.3011
-968.3011
-968.3011
-968.3011
-968.3011
-968.3011
-968.3011
-968.3011
-968.3011
-968.3011
-968.3011
-968.3011
-968.3011
-968.3011
-968.3011
-968.3011
-968.3011
-968.3011
-968.3011
-968.3011
-968.3011
-968.3011
-968.3011
-968.3011
-968.3011
-968.3011
-968.3011
-968.3011
-968.3011
-968.3011
-968.3011
-968.3011
-968.3011
-968.3011
-968.3011
-968.3011
-968.3011
-968.3011
-968.3011
-968.3011
-968.3011
-968.3011
-968.3011
-968.3011
-968.3011
-968.3011
-968.3011
-968.3011
-968.3011
-968.3011
-968.3011
-968.3011
-968.3011
-968.3011
-968.3011
-968.3011
-968.3011
-968.3011
-968.3011
-968.3011
-968.3011
-968.3011
-968.3011
-968.3011
-968.3011
-968.3011
-968.3011
-968.3011
-968.3011
-968.3011
-968.3011
-968.3011
-968.3011
-968.3011
-968.3011
-968.3011
-968.3011
-968.3011
-968.3011
-968.3011
-968.3011
-968.3011
-968.3011
-968.3011
-968.3011
-968.3011
-968.3011
-968.3011
-968.3011
-968.3011
-968.3011
-968.3011
-968.3011
-968.3011
-968.3011
-968.3011
-968.3011
-968.3011
-968.3011
-968.3011
-968.3011
-968.3011
-968.3011
-968.3011
-968.3011
-968.3011
-968.3011
-968.3011
-968.3011
-968.3011
-968.3011
-968.3011
-968.3011
-968.3011
-968.3011
-968.3011
-968.3011
-968.3011
-968.3011
-968.3011
-968.3011
-968.3011
-968.3011
-968.3011
-968.3011
-968.3011
-968.3011
-968.3011
-968.3011
-968.3011
-968.3011
-968.3011
-968.3011
-968.3011
-968.3011
-968.3011
-968.3011
-968.3011
-968.3011
-968.3011
-968.3011
-968.3011
-968.3011
-968.3011
-968.3011
-968.3011
-968.3011
-968.3011
-968.3011
-968.3011
-968.3011
-968.3011
-968.3011
-968.3011
-968.3011
-968.3011
-968.3011
-968.3011
-968.3011
-968.3011
-968.3011
-968.3011
-968.3011
-968.3011
-968.3011
-968.3011
-968.3011
-968.3011
-968.3011
-968.3011
-968.3011
-968.3011
-968.3011
-968.3011
-968.3011
-968.3011
-968.3011
-968.3011
-968.3011
-968.3011
-968.3011
-968.3011
-968.3011
-968.3011
-968.3011
-968.3011
-968.3011
-968.3011
-968.3011
-968.3011
-968.3011
-968.3011
-968.3011
-968.3011
-968.3011
-968.3011
-968.3011
-968.3011
-968.3011
-968.3011
-968.3011
-968.3011
-968.3011
-968.3011
-968.3011
-968.3011
-968.3011
-968.3011
-968.3011
-968.3011
-968.3011
-968.3011
-968.3011
-968.3011
-968.3011
-968.3011
-968.3011
-968.3011
-968.3011
-968.3011
-968.3011
-968.3011
-968.3011
-968.3011
-968.3011
-968.3011
-968.3011
-968.3011
-968.3011
-968.3011
-968.3011
-968.3011
-968.3011
-968.3011
-968.3011
-968.3011
-968.3011
-968.3011
-968.3011
-968.3011
-968.3011
-968.3011
-968.3011
-968.3011
-968.3011
-968.3011
-968.3011
-968.3011
-968.3011
-968.3011
-968.3011
-968.3011
-968.3011
-968.3011
-968.3011
-968.3011
-968.3011
-968.3011
-968.3011
-968.3011
-968.3011
-968.3011
-968.3011
-968.3011
-968.3011
-968.3011
-968.3011
-968.3011
-968.3011
-968.3011
-968.3011
-968.3011
-968.3011
-968.3011
-968.3011
-968.3011
-968.3011
-968.3011
-968.3011
-968.3011
-968.3011
-968.3011
-968.3011
-968.3011
-968.3011
-968.3011
-968.3011
-968.3011
-968.3011
-968.3011
-968.3011
-968.3011
-968.3011
-968.3011
-968.3011
-968.3011
-968.3011
-968.3011
-968.3011
-968.3011
-968.3011
-968.3011
-968.3011
-968.3011
-968.3011
-968.3011
-968.3011
-968.3011
-968.3011
-968.3011
-968.3011
-968.3011
-968.3011
-968.3011
-968.3011
-968.3011
-968.3011
-968.3011
-968.3011
-968.3011
-968.3011
-968.3011
-968.3011
-968.3011
-968.3011
-968.3011
-968.3011
-968.3011
-968.3011
-968.3011
-968.3011
-968.3011
-968.3011
-968.3011
-968.3011
-968.3011
-968.3011
-968.3011
-968.3011
-968.3011
