5.47156577e-01
4.07821309e-01
3.37339916e-01
3.23646966e-01
3.23017049e-01
3.14624790e-01
2.99471588e-01
2.82791678e-01
2.69121503e-01
2.59701888e-01
2.52813717e-01
2.46548026e-01
2.40214036e-01
2.34034670e-01
2.28396742e-01
2.23422291e-01
2.18970445e-01
2.14838333e-01
2.10857685e-01
2.07024613e-01
2.03347387e-01
1.99886791e-01
1.96623330e-01
1.93545653e-01
1.90631759e-01
1.87866658e-01
1.85204578e-01
1.82608983e-01
1.80104921e-01
1.77688634e-01
1.75334123e-01
1.73024479e-01
1.70755018e-01
1.68549877e-01
1.66437768e-01
1.64416372e-01
1.62462512e-01
1.60577785e-01
1.58739216e-01
1.56939735e-01
1.55185821e-01
1.53481974e-01
1.51846629e-01
1.50272308e-01
1.48723315e-01
1.47164077e-01
1.45603504e-01
1.44072539e-01
1.42592878e-01
1.41139492e-01
1.39712468e-01
1.38283670e-01
1.36846084e-01
1.35409885e-01
1.34004649e-01
1.32665989e-01
1.31393563e-01
1.30174215e-01
1.28981033e-01
1.27785150e-01
1.26584044e-01
1.25394690e-01
1.24236649e-01
1.23109671e-01
1.22001656e-01
1.20918474e-01
1.19849087e-01
1.18806479e-01
1.17780811e-01
1.16754461e-01
1.15741287e-01
1.14755947e-01
1.13792431e-01
1.12829507e-01
1.11864356e-01
1.10908791e-01
1.09972855e-01
1.09058176e-01
1.08158999e-01
1.07271573e-01
1.06385444e-01
1.05501864e-01
1.04623708e-01
1.03766642e-01
1.02938702e-01
1.02125168e-01
1.01315757e-01
1.00508269e-01
9.97071174e-02
9.89108149e-02
9.81282849e-02
9.73507346e-02
9.65778578e-02
9.58185693e-02
9.50650405e-02
9.43196624e-02
9.35811998e-02
9.28408841e-02
9.20926849e-02
9.13396002e-02
9.05989067e-02
8.98871324e-02
8.91985250e-02
8.85019410e-02
8.77909011e-02
8.70831464e-02
8.63968964e-02
8.57220455e-02
8.50453857e-02
8.43748738e-02
8.37026933e-02
8.30370327e-02
8.23780484e-02
8.17033182e-02
8.10330396e-02
8.03770742e-02
7.97324884e-02
7.91118688e-02
7.85193430e-02
7.79450085e-02
7.73771728e-02
7.68082172e-02
7.62332265e-02
7.56386133e-02
7.50417908e-02
7.44654956e-02
7.39223674e-02
7.33997862e-02
7.28807919e-02
7.23568966e-02
7.18329372e-02
7.13173062e-02
7.08099552e-02
7.02900132e-02
6.97547062e-02
6.92299257e-02
6.87240971e-02
6.82300414e-02
6.77393036e-02
6.72356250e-02
6.67339011e-02
6.62399314e-02
6.57489983e-02
6.52682469e-02
6.48090557e-02
6.43659520e-02
6.39292451e-02
6.34955773e-02
6.30535541e-02
6.26076878e-02
6.21592202e-02
6.17170200e-02
6.12706277e-02
6.08250424e-02
6.03904084e-02
5.99651686e-02
5.95500766e-02
5.91390673e-02
5.87302018e-02
5.83188414e-02
5.78986288e-02
5.74874533e-02
5.70933414e-02
5.66974807e-02
5.62818048e-02
5.58721207e-02
5.54746646e-02
5.50913853e-02
5.47195345e-02
5.43419212e-02
5.39527337e-02
5.35581338e-02
5.31801898e-02
5.28177625e-02
5.24644917e-02
5.21102820e-02
5.17523101e-02
5.13998486e-02
5.10595447e-02
5.07309928e-02
5.03984892e-02
5.00618144e-02
4.97296207e-02
4.94093821e-02
4.90963319e-02
4.87818715e-02
4.84708712e-02
4.81648463e-02
4.78628623e-02
4.75599539e-02
4.72514548e-02
4.69387187e-02
4.66308610e-02
4.63329888e-02
4.60479080e-02
4.57690298e-02
4.54863299e-02
4.52035390e-02
4.49248507e-02
4.46440340e-02
4.43648988e-02
4.40902863e-02
4.38132029e-02
4.35381005e-02
4.32675294e-02
4.29996344e-02
4.27359291e-02
4.24713553e-02
4.22060733e-02
4.19396580e-02
4.16714562e-02
4.14064776e-02
4.11469960e-02
4.08910748e-02
4.06257699e-02
4.03572861e-02
4.00949969e-02
3.98428572e-02
3.95988002e-02
3.93583688e-02
3.91196927e-02
3.88843390e-02
3.86472434e-02
3.84065942e-02
3.81699185e-02
3.79427216e-02
3.77221902e-02
3.75027384e-02
3.72775329e-02
3.70500575e-02
3.68222692e-02
3.66022990e-02
3.63886069e-02
3.61789707e-02
3.59694101e-02
3.57633325e-02
3.55615963e-02
3.53642217e-02
3.51643005e-02
3.49637179e-02
3.47671294e-02
3.45762750e-02
3.43889083e-02
3.42004479e-02
3.40121335e-02
3.38255898e-02
3.36413726e-02
3.34600422e-02
3.32726494e-02
3.30820632e-02
3.28966355e-02
3.27121656e-02
3.25294649e-02
3.23420167e-02
3.21530376e-02
3.19517170e-02
3.17492666e-02
3.15589001e-02
3.13854100e-02
3.12214062e-02
3.10523355e-02
3.08780400e-02
3.07049505e-02
3.05341468e-02
3.03664191e-02
3.01984845e-02
3.00304846e-02
2.98598450e-02
2.96754680e-02
2.94867142e-02
2.92989490e-02
2.91237304e-02
2.89655779e-02
2.88178950e-02
2.86715523e-02
2.85186508e-02
2.83618131e-02
2.82066224e-02
2.80557378e-02
2.79090744e-02
2.77620726e-02
2.76126262e-02
2.74653997e-02
2.73227005e-02
2.71844595e-02
2.70482491e-02
2.69123894e-02
2.67757669e-02
2.66340220e-02
2.64922577e-02
2.63521844e-02
2.62160182e-02
2.60844374e-02
2.59542556e-02
2.58226206e-02
2.56902541e-02
2.55590207e-02
2.54295717e-02
2.53009869e-02
2.51700449e-02
2.50246354e-02
2.48667018e-02
2.47160402e-02
2.45824881e-02
2.44627493e-02
2.43479282e-02
2.42312664e-02
2.41096248e-02
2.39850218e-02
2.38586661e-02
2.37339304e-02
2.36122930e-02
2.34922588e-02
2.33745897e-02
2.32542142e-02
2.31284291e-02
2.30022029e-02
2.28811185e-02
2.27640291e-02
2.26500540e-02
2.25377733e-02
2.24252835e-02
2.23096789e-02
2.21942562e-02
2.20825387e-02
2.19668432e-02
2.18502032e-02
2.17375965e-02
2.16310249e-02
2.15265877e-02
2.14226474e-02
2.13188957e-02
2.12153108e-02
2.11124296e-02
2.10099725e-02
2.09076219e-02
2.08028535e-02
2.06966271e-02
2.05924623e-02
2.04925854e-02
2.03966044e-02
2.03023880e-02
2.02054284e-02
2.01044105e-02
2.00039056e-02
1.99066572e-02
1.98128313e-02
1.97209577e-02
1.96271715e-02
1.95319662e-02
1.94382143e-02
1.93468475e-02
1.92489973e-02
1.91474074e-02
1.90479838e-02
1.89546930e-02
1.88670695e-02
1.87821258e-02
1.86945691e-02
1.86010203e-02
1.85042320e-02
1.84102236e-02
1.83212947e-02
1.82367435e-02
1.81502762e-02
1.80623422e-02
1.79756596e-02
1.78917851e-02
1.78096456e-02
1.77234206e-02
1.76361230e-02
1.75478452e-02
1.74607519e-02
1.73754311e-02
1.72939440e-02
1.72162394e-02
1.71407220e-02
1.70649370e-02
1.69843668e-02
1.68996811e-02
1.68162470e-02
1.67369529e-02
1.66616001e-02
1.65869636e-02
1.65113238e-02
1.64358427e-02
1.63613638e-02
1.62845512e-02
1.62070918e-02
1.61288238e-02
1.60509283e-02
1.59755931e-02
1.59001870e-02
1.58212577e-02
1.57430093e-02
1.56683637e-02
1.55976174e-02
1.55292809e-02
1.54595796e-02
1.53885297e-02
1.53178202e-02
1.52477049e-02
1.51781017e-02
1.51093002e-02
1.50398055e-02
1.49707607e-02
1.48938606e-02
1.48121696e-02
1.47357405e-02
1.46678470e-02
1.46050223e-02
1.45424203e-02
1.44764578e-02
1.44049348e-02
1.43233867e-02
1.42441505e-02
1.41737633e-02
1.41114118e-02
1.40526413e-02
1.39934394e-02
1.39326583e-02
1.38708676e-02
1.38090303e-02
1.37477390e-02
1.36872120e-02
1.36275162e-02
1.35686755e-02
1.35106319e-02
1.34530959e-02
1.33956979e-02
1.33381105e-02
1.32801307e-02
1.32221058e-02
1.31636938e-02
1.31044400e-02
1.30459753e-02
1.29890392e-02
1.29297541e-02
1.28685204e-02
1.28085349e-02
1.27517991e-02
1.26977164e-02
1.26447001e-02
1.25917238e-02
1.25386968e-02
1.24830635e-02
1.24272134e-02
1.23727903e-02
1.23202938e-02
1.22686822e-02
1.22168423e-02
1.21650915e-02
1.21135905e-02
1.20606148e-02
1.20078406e-02
1.19560196e-02
1.19041744e-02
1.18531733e-02
1.18034223e-02
1.17547512e-02
1.17066606e-02
1.16586889e-02
1.16106467e-02
1.15595748e-02
1.15053918e-02
1.14483973e-02
1.13944563e-02
1.13457678e-02
1.12978232e-02
1.12481834e-02
1.11968362e-02
1.11466948e-02
1.10989152e-02
1.10529581e-02
1.10076141e-02
1.09610521e-02
1.09142525e-02
1.08683351e-02
1.08235879e-02
1.07788431e-02
1.07343065e-02
1.06903070e-02
1.06464517e-02
1.06025696e-02
1.05591469e-02
1.05160007e-02
1.04726057e-02
1.04290914e-02
1.03861748e-02
1.03441326e-02
1.03023030e-02
1.02575474e-02
1.02124544e-02
1.01692020e-02
1.01266719e-02
1.00792238e-02
1.00316062e-02
9.98430876e-03
9.94000483e-03
9.89877867e-03
9.85931534e-03
9.82032603e-03
9.78105087e-03
9.74129593e-03
9.70134630e-03
9.66170133e-03
9.62267826e-03
9.58202501e-03
9.54100648e-03
9.50114935e-03
9.46272500e-03
9.42498247e-03
9.38736239e-03
9.34991191e-03
9.31280205e-03
9.27609335e-03
9.23968745e-03
9.20339087e-03
9.16725344e-03
9.13103232e-03
9.09470840e-03
9.05791528e-03
9.02131956e-03
8.98560593e-03
8.95080145e-03
8.91643470e-03
8.88210233e-03
8.84677933e-03
8.80957260e-03
8.76938547e-03
8.72474960e-03
8.67693566e-03
8.63385111e-03
8.59790733e-03
8.56652571e-03
8.53572830e-03
8.50328389e-03
8.46923302e-03
8.43478306e-03
8.40099421e-03
8.36815763e-03
8.33596522e-03
8.30400823e-03
8.27211054e-03
8.24033710e-03
8.20880724e-03
8.17757511e-03
8.14659107e-03
8.11576280e-03
8.08328282e-03
8.04918619e-03
8.01512449e-03
7.98235817e-03
7.95107821e-03
7.92086613e-03
7.89117108e-03
7.86164432e-03
7.83125057e-03
7.80041135e-03
7.76648690e-03
7.73306488e-03
7.70220260e-03
7.67358003e-03
7.64492766e-03
7.61475474e-03
7.58339687e-03
7.55262826e-03
7.52335240e-03
7.49289206e-03
7.46184793e-03
7.43194747e-03
7.40352201e-03
7.37543833e-03
7.34668768e-03
7.31806751e-03
7.29026635e-03
7.26331694e-03
7.23672208e-03
7.20994907e-03
7.18293416e-03
7.15589299e-03
7.12810031e-03
7.10004585e-03
7.07096595e-03
7.04181405e-03
7.01420133e-03
6.98829547e-03
6.96319286e-03
6.93681704e-03
6.90731915e-03
6.87776397e-03
6.84938024e-03
6.82290158e-03
6.79781041e-03
6.77322915e-03
6.74856812e-03
6.72335692e-03
6.69756338e-03
6.67187071e-03
6.64591979e-03
6.62029547e-03
6.59222902e-03
6.56190347e-03
6.53298527e-03
6.50604271e-03
6.48052460e-03
6.45592104e-03
6.43189330e-03
6.40827303e-03
6.38496442e-03
6.36184530e-03
6.33879151e-03
6.31571463e-03
6.29264873e-03
6.26966133e-03
6.24678967e-03
6.22402578e-03
6.20134540e-03
6.17877990e-03
6.15637429e-03
6.13401218e-03
6.11174715e-03
6.08970354e-03
6.06791163e-03
6.04558860e-03
6.02319201e-03
6.00070546e-03
5.97854607e-03
5.95700161e-03
5.93589882e-03
5.91487811e-03
5.89368601e-03
5.87229505e-03
5.85096796e-03
5.82869494e-03
5.80464666e-03
5.77992588e-03
5.75674220e-03
5.73555219e-03
5.71552080e-03
5.69567231e-03
5.67550679e-03
5.65517520e-03
5.63479181e-03
5.61389420e-03
5.59311404e-03
5.57282071e-03
5.55300319e-03
5.53345062e-03
5.51398551e-03
5.49456725e-03
5.47525047e-03
5.45609127e-03
5.43709157e-03
5.41814542e-03
5.39905010e-03
5.37937606e-03
5.35984023e-03
5.34087607e-03
5.32221815e-03
5.30249179e-03
5.27872571e-03
5.25423100e-03
5.23104529e-03
5.20996578e-03
5.19094288e-03
5.17305451e-03
5.15541904e-03
5.13762305e-03
5.11951151e-03
5.10059534e-03
5.08118227e-03
5.06155022e-03
5.04257305e-03
5.02399811e-03
5.00512236e-03
4.98614403e-03
4.96682292e-03
4.94719483e-03
4.92842447e-03
4.91070966e-03
4.89359382e-03
4.87661866e-03
4.85965340e-03
4.84279702e-03
4.82613986e-03
4.80792283e-03
4.78895306e-03
4.77063152e-03
4.75337205e-03
4.73679081e-03
4.72039233e-03
4.70398907e-03
4.68727861e-03
4.67076947e-03
4.65470720e-03
4.63898703e-03
4.62337504e-03
4.60772516e-03
4.59071499e-03
4.57303607e-03
4.55427948e-03
4.53613727e-03
4.51954655e-03
4.50279244e-03
4.48199330e-03
4.45757273e-03
4.43464733e-03
4.41671917e-03
4.40275409e-03
4.38962195e-03
4.37507221e-03
4.35890190e-03
4.34221030e-03
4.32610639e-03
4.31095308e-03
4.29643110e-03
4.28193027e-03
4.26726796e-03
4.25241898e-03
4.23753982e-03
4.22292207e-03
4.20860083e-03
4.19445173e-03
4.18035855e-03
4.16605673e-03
4.15174293e-03
4.13764633e-03
4.12380687e-03
4.11010096e-03
4.09443134e-03
4.07736821e-03
4.06122777e-03
4.04690523e-03
4.03387766e-03
4.02116320e-03
4.00814444e-03
3.99431424e-03
3.97960119e-03
3.96505749e-03
3.95124827e-03
3.93813290e-03
3.92537324e-03
3.91227155e-03
3.89816436e-03
3.88400197e-03
3.87040533e-03
3.85678724e-03
3.84329643e-03
3.83011622e-03
3.81730882e-03
3.80480181e-03
3.79244959e-03
3.78011864e-03
3.76774427e-03
3.75533717e-03
3.74275644e-03
3.72999287e-03
3.71741650e-03
3.70519195e-03
3.69324351e-03
3.68139563e-03
3.66952197e-03
3.65759345e-03
3.64513509e-03
3.63147345e-03
3.61809888e-03
3.60579499e-03
3.59437219e-03
3.58320034e-03
3.57182292e-03
3.56018462e-03
3.54848235e-03
3.53232881e-03
3.51327133e-03
3.49681600e-03
3.48472141e-03
3.47515952e-03
3.46540786e-03
3.45412011e-03
3.43981067e-03
3.42388860e-03
3.40974079e-03
3.39833072e-03
3.38658078e-03
3.37406181e-03
3.36165803e-03
3.34997819e-03
3.33900234e-03
3.32833289e-03
3.31436034e-03
3.29904928e-03
3.28523696e-03
3.27378939e-03
3.26380707e-03
3.25384890e-03
3.24272039e-03
3.23108422e-03
3.21980090e-03
3.20921310e-03
3.19910801e-03
3.18908999e-03
3.17892280e-03
3.16861743e-03
3.15831757e-03
3.14814813e-03
3.13814147e-03
3.12825339e-03
3.11841877e-03
3.10859597e-03
3.09877940e-03
3.08898732e-03
3.07924190e-03
3.06952402e-03
3.05978339e-03
3.05010468e-03
3.04052919e-03
3.03103993e-03
3.02159560e-03
3.01216923e-03
3.00165068e-03
2.99061649e-03
2.98011596e-03
2.97056943e-03
2.96142333e-03
2.95208833e-03
2.94257528e-03
2.93307646e-03
2.92317003e-03
2.91290206e-03
2.90302319e-03
2.89378570e-03
2.88496561e-03
2.87620813e-03
2.86731608e-03
2.85830601e-03
2.84929714e-03
2.84038410e-03
2.83158612e-03
2.82273183e-03
2.81383518e-03
2.80487298e-03
2.79541320e-03
2.78598919e-03
2.77697258e-03
2.76803533e-03
2.75852035e-03
2.74912269e-03
2.74026725e-03
2.73190136e-03
2.72371345e-03
2.71544486e-03
2.70700220e-03
2.69810117e-03
2.68921724e-03
2.68066648e-03
2.67246475e-03
2.66444342e-03
2.65643465e-03
2.64837309e-03
2.64028459e-03
2.63222185e-03
2.62421481e-03
2.61626226e-03
2.60834986e-03
2.60046866e-03
2.59262000e-03
2.58480936e-03
2.57703900e-03
2.56930551e-03
2.56160275e-03
2.55392609e-03
2.54627451e-03
2.53864990e-03
2.53105508e-03
2.52349200e-03
2.51596106e-03
2.50840148e-03
2.50055732e-03
2.49274525e-03
2.48516821e-03
2.47781512e-03
2.47055191e-03
2.46326273e-03
2.45592173e-03
2.44857296e-03
2.44126961e-03
2.43403246e-03
2.42684864e-03
2.41969495e-03
2.41255672e-03
2.40543507e-03
2.39833975e-03
2.39127717e-03
2.38424669e-03
2.37724377e-03
2.37026487e-03
2.36330979e-03
2.35638066e-03
2.34947947e-03
2.34260657e-03
2.33576072e-03
2.32879202e-03
2.32140838e-03
2.31407140e-03
2.30705933e-03
2.30035640e-03
2.29377450e-03
2.28691485e-03
2.27993830e-03
2.27302952e-03
2.26628826e-03
2.25969721e-03
2.25317750e-03
2.24606561e-03
2.23855263e-03
2.23133622e-03
2.22468025e-03
2.21832954e-03
2.21112682e-03
2.20372669e-03
2.19672554e-03
2.19025181e-03
2.18405791e-03
2.17784486e-03
2.17139455e-03
2.16387955e-03
2.15637710e-03
2.14958307e-03
2.14346348e-03
2.13757427e-03
2.13154102e-03
2.12528700e-03
2.11895382e-03
2.11270329e-03
2.10659269e-03
2.10057986e-03
2.09459696e-03
2.08860903e-03
2.08262206e-03
2.07632041e-03
2.06887797e-03
2.06150205e-03
2.05484046e-03
2.04878229e-03
2.04292753e-03
2.03704472e-03
2.03115913e-03
2.02537794e-03
2.01972435e-03
2.01412154e-03
2.00847815e-03
2.00276131e-03
1.99700033e-03
1.99124423e-03
1.98552415e-03
1.97977576e-03
1.97388889e-03
1.96768356e-03
1.95970326e-03
1.95173718e-03
1.94505604e-03
1.93964270e-03
1.93470374e-03
1.92952929e-03
1.92393006e-03
1.91812522e-03
1.91239924e-03
1.90687081e-03
1.90148720e-03
1.89614517e-03
1.89022051e-03
1.88390820e-03
1.87791768e-03
1.87249825e-03
1.86744094e-03
1.86240552e-03
1.85720791e-03
1.85187994e-03
1.84655349e-03
1.84132402e-03
1.83589233e-03
1.83031024e-03
1.82488060e-03
1.81969360e-03
1.81466127e-03
1.80966636e-03
1.80465716e-03
1.79964255e-03
1.79464360e-03
1.78966478e-03
1.78469969e-03
1.77974773e-03
1.77481898e-03
1.76907986e-03
1.76326232e-03
1.75794235e-03
1.75315560e-03
1.74858284e-03
1.74388962e-03
1.73897212e-03
1.73397683e-03
1.72906291e-03
1.72428781e-03
1.71961085e-03
1.71496186e-03
1.71030025e-03
1.70562728e-03
1.70096447e-03
1.69632830e-03
1.69172082e-03
1.68713522e-03
1.68256528e-03
1.67800986e-03
1.67347141e-03
1.66895217e-03
1.66445214e-03
1.65996953e-03
1.65550248e-03
1.65105027e-03
1.64657622e-03
1.64211211e-03
1.63768299e-03
1.63329141e-03
1.62892532e-03
1.62457264e-03
1.62022931e-03
1.61589804e-03
1.61158294e-03
1.60728570e-03
1.60300539e-03
1.59874025e-03
1.59240924e-03
1.58394604e-03
1.57651776e-03
1.57142059e-03
1.56789745e-03
1.56450200e-03
1.56038682e-03
1.55562617e-03
1.55075817e-03
1.54620241e-03
1.54201451e-03
1.53800384e-03
1.53397261e-03
1.52985354e-03
1.52569386e-03
1.52156567e-03
1.51749958e-03
1.51346771e-03
1.50942410e-03
1.50538153e-03
1.50136197e-03
1.49737784e-03
1.49342662e-03
1.48949756e-03
1.48553673e-03
1.48156763e-03
1.47762975e-03
1.47373805e-03
1.46988280e-03
1.46604548e-03
1.46221357e-03
1.45838544e-03
1.45456652e-03
1.45076298e-03
1.44697778e-03
1.44321025e-03
1.43945792e-03
1.43571850e-03
1.43199100e-03
1.42827565e-03
1.42457325e-03
1.42084016e-03
1.41668364e-03
1.41251494e-03
1.40861395e-03
1.40498543e-03
1.40146533e-03
1.39790082e-03
1.39365324e-03
1.38903464e-03
1.38472765e-03
1.38094685e-03
1.37749292e-03
1.37407412e-03
1.37054569e-03
1.36693426e-03
1.36324934e-03
1.35959682e-03
1.35602782e-03
1.35253000e-03
1.34906566e-03
1.34560552e-03
1.34214068e-03
1.33867782e-03
1.33522904e-03
1.33180410e-03
1.32840679e-03
1.32503479e-03
1.32168156e-03
1.31833962e-03
1.31500350e-03
1.31167144e-03
1.30834511e-03
1.30502792e-03
1.30172312e-03
1.29843250e-03
1.29515638e-03
1.29189410e-03
1.28864478e-03
1.28540762e-03
1.28218192e-03
1.27896699e-03
1.27576212e-03
1.27256677e-03
1.26938082e-03
1.26620464e-03
1.26040602e-03
1.25295454e-03
1.24680936e-03
1.24300188e-03
1.24066668e-03
1.23838901e-03
1.23535430e-03
1.23165121e-03
1.22782103e-03
1.22429527e-03
1.22108055e-03
1.21799442e-03
1.21490919e-03
1.21178069e-03
1.20864989e-03
1.20556797e-03
1.20254391e-03
1.19954837e-03
1.19654824e-03
1.19353341e-03
1.19051787e-03
1.18752271e-03
1.18455933e-03
1.18162455e-03
1.17870626e-03
1.17579435e-03
1.17288498e-03
1.16998009e-03
1.16708407e-03
1.16420036e-03
1.16133014e-03
1.15847260e-03
1.15562606e-03
1.15248444e-03
1.14914283e-03
1.14497985e-03
1.14081430e-03
1.13733693e-03
1.13455127e-03
1.13203557e-03
1.12938802e-03
1.12648116e-03
1.12343317e-03
1.11893230e-03
1.11360830e-03
1.10915569e-03
1.10606929e-03
1.10378194e-03
1.10149032e-03
1.09824995e-03
1.09449122e-03
1.09098562e-03
1.08803046e-03
1.08544328e-03
1.08290059e-03
1.08022482e-03
1.07743789e-03
1.07456979e-03
1.07121874e-03
1.06794040e-03
1.06504609e-03
1.06248345e-03
1.06002488e-03
1.05749610e-03
1.05486642e-03
1.05220053e-03
1.04956862e-03
1.04699571e-03
1.04446604e-03
1.04195270e-03
1.03944017e-03
1.03692801e-03
1.03442296e-03
1.03193062e-03
1.02945230e-03
1.02698625e-03
1.02453007e-03
1.02208220e-03
1.01964219e-03
1.01721044e-03
1.01478759e-03
1.01237416e-03
1.00997017e-03
1.00757508e-03
1.00518807e-03
1.00280842e-03
1.00043586e-03
9.98070614e-04
9.95713197e-04
9.93364085e-04
9.91023459e-04
9.88691160e-04
9.86366814e-04
9.84050034e-04
9.81740571e-04
9.79438366e-04
9.77143497e-04
9.74856092e-04
9.72576238e-04
9.70303948e-04
9.68039165e-04
9.65781800e-04
9.63531761e-04
9.61288982e-04
9.59053423e-04
9.56825056e-04
9.54603860e-04
9.52160727e-04
9.49266101e-04
9.46473132e-04
9.44064861e-04
9.41963190e-04
9.39932945e-04
9.37808910e-04
9.35575191e-04
9.33306829e-04
9.31076288e-04
9.28905357e-04
9.26774250e-04
9.24654400e-04
9.22531003e-04
9.20405026e-04
9.18283748e-04
9.16172285e-04
9.14071379e-04
9.11979508e-04
9.09895301e-04
9.07818251e-04
9.05748245e-04
9.03685051e-04
9.01628332e-04
8.99577946e-04
8.97534062e-04
8.95496984e-04
8.93466788e-04
8.91442764e-04
8.89425117e-04
8.87413922e-04
8.85409112e-04
8.83410613e-04
8.81353082e-04
8.79198792e-04
8.77073893e-04
8.75034304e-04
8.73060806e-04
8.71002224e-04
8.68501505e-04
8.66012704e-04
8.63823758e-04
8.61920517e-04
8.60121699e-04
8.58270471e-04
8.56322913e-04
8.54316559e-04
8.52318254e-04
8.50364274e-04
8.48453372e-04
8.46565687e-04
8.44682695e-04
8.42796269e-04
8.40907966e-04
8.39024195e-04
8.37151384e-04
8.35292823e-04
8.33447686e-04
8.31612123e-04
8.29781629e-04
8.27953291e-04
8.26126707e-04
8.24303343e-04
8.21873999e-04
8.19342392e-04
8.17151648e-04
8.15347368e-04
8.13709716e-04
8.12017030e-04
8.10196028e-04
8.08303220e-04
8.06426395e-04
8.04610979e-04
8.02849469e-04
8.01111046e-04
7.99371897e-04
7.97625612e-04
7.95877125e-04
7.94133066e-04
7.92396870e-04
7.90669032e-04
7.88949033e-04
7.87236380e-04
7.85530550e-04
7.83830790e-04
7.82136310e-04
7.80446684e-04
7.78761991e-04
7.77082574e-04
7.75408650e-04
7.73740108e-04
7.72076591e-04
7.70417748e-04
7.68763442e-04
7.67097006e-04
7.65310471e-04
7.63522714e-04
7.61804341e-04
7.60149447e-04
7.58519229e-04
7.56889537e-04
7.55262695e-04
7.53649377e-04
7.52051780e-04
7.50462244e-04
7.48871086e-04
7.47274354e-04
7.45674829e-04
7.44077994e-04
7.42487951e-04
7.40906186e-04
7.39332600e-04
7.37766808e-04
7.36208057e-04
7.34656078e-04
7.33109238e-04
7.31567206e-04
7.30029140e-04
7.28494139e-04
7.26961890e-04
7.25432826e-04
7.23907788e-04
7.22387542e-04
7.20872504e-04
7.19362732e-04
7.17855415e-04
7.16350615e-04
7.14851382e-04
7.13358939e-04
7.11872527e-04
7.10390649e-04
7.08912286e-04
7.07437286e-04
7.05966046e-04
7.04499010e-04
7.03036409e-04
7.01578281e-04
7.00124603e-04
6.98675358e-04
6.97230524e-04
6.95790018e-04
6.94353699e-04
6.92921410e-04
6.91493040e-04
6.90068558e-04
6.88561308e-04
6.86911792e-04
6.85306477e-04
6.83837005e-04
6.82470977e-04
6.81123196e-04
6.79736304e-04
6.78309469e-04
6.76875598e-04
6.75463989e-04
6.74080769e-04
6.72713736e-04
6.71348182e-04
6.69978003e-04
6.68606168e-04
6.67238635e-04
6.65878758e-04
6.64525939e-04
6.63177698e-04
6.61832221e-04
6.60489363e-04
6.59150008e-04
6.57814963e-04
6.56484363e-04
6.55157823e-04
6.53834908e-04
6.52515452e-04
6.51199551e-04
6.49887365e-04
6.48578958e-04
6.47274271e-04
6.45973203e-04
6.44675685e-04
6.43381714e-04
6.42091314e-04
6.40804503e-04
6.39437040e-04
6.38016294e-04
6.36633067e-04
6.35320998e-04
6.34060310e-04
6.32815099e-04
6.31562811e-04
6.30300049e-04
6.29033235e-04
6.27768732e-04
6.26509409e-04
6.25255992e-04
6.24008880e-04
6.22768373e-04
6.21534010e-04
6.20304386e-04
6.19077813e-04
6.17853224e-04
6.16630565e-04
6.15410533e-04
6.14193984e-04
6.12981456e-04
6.11773022e-04
6.10568418e-04
6.09367261e-04
6.08169247e-04
6.06974242e-04
6.05782279e-04
6.04593490e-04
6.03408017e-04
6.02225933e-04
6.01047212e-04
5.99871757e-04
5.98699448e-04
5.97530197e-04
5.96363973e-04
5.95200795e-04
5.94040704e-04
5.92883734e-04
5.91729889e-04
5.90579149e-04
5.89431480e-04
5.88286848e-04
5.87145228e-04
5.86006609e-04
5.84870992e-04
5.83738378e-04
5.82608764e-04
5.81482142e-04
5.80358498e-04
5.79237816e-04
5.78120080e-04
5.77005277e-04
5.75893398e-04
5.74784433e-04
5.73678375e-04
5.72575214e-04
5.71474938e-04
5.70377535e-04
5.69282993e-04
5.68191300e-04
5.67102446e-04
5.66016422e-04
5.64933220e-04
5.63852830e-04
5.62775243e-04
5.61700449e-04
5.60628437e-04
5.59559197e-04
5.58492720e-04
5.57428997e-04
5.56368018e-04
5.55309775e-04
5.54254257e-04
5.53201456e-04
5.52151363e-04
5.51103966e-04
5.50059259e-04
5.49017229e-04
5.47977870e-04
5.46941171e-04
5.45907123e-04
5.44875718e-04
5.43846947e-04
5.42820799e-04
5.41797268e-04
5.40776343e-04
5.39758015e-04
5.38742277e-04
5.37729120e-04
5.36718534e-04
5.35710512e-04
5.34705044e-04
5.33702322e-04
5.32703112e-04
5.31706734e-04
5.30712590e-04
5.29720416e-04
5.28730207e-04
5.27742103e-04
5.26755179e-04
5.25544475e-04
5.24288869e-04
5.23150464e-04
5.22156135e-04
5.21234323e-04
5.20303432e-04
5.19328847e-04
5.18323323e-04
5.17315971e-04
5.16325369e-04
5.15353043e-04
5.14391677e-04
5.13434796e-04
5.12480235e-04
5.11528243e-04
5.10578788e-04
5.09630940e-04
5.08683944e-04
5.07738190e-04
5.06794990e-04
5.05855551e-04
5.04920145e-04
5.03988094e-04
5.03058396e-04
5.02130394e-04
5.01204044e-04
5.00279742e-04
4.99357952e-04
4.98438927e-04
4.97522645e-04
4.96608901e-04
4.95697465e-04
4.94788180e-04
4.93881001e-04
4.92975966e-04
4.92073148e-04
4.91172605e-04
4.90274358e-04
4.89378388e-04
4.88484646e-04
4.87593088e-04
4.86703688e-04
4.85816445e-04
4.84931374e-04
4.84048491e-04
4.83167804e-04
4.82289304e-04
4.81412974e-04
4.80538790e-04
4.79666735e-04
4.78796798e-04
4.77928973e-04
4.77063255e-04
4.76199643e-04
4.75338128e-04
4.74478702e-04
4.73621357e-04
4.72766085e-04
4.71912878e-04
4.71061730e-04
4.70212636e-04
4.69365591e-04
4.68520588e-04
4.67677620e-04
4.66836681e-04
4.65997762e-04
4.65160857e-04
4.64325957e-04
4.63493056e-04
4.62662147e-04
4.61833222e-04
4.61006276e-04
4.60095446e-04
4.58832241e-04
4.57578999e-04
4.56564881e-04
4.55777238e-04
4.55065116e-04
4.54297470e-04
4.53443115e-04
4.52548805e-04
4.51672910e-04
4.50839432e-04
4.50035994e-04
4.49238497e-04
4.48433371e-04
4.47622342e-04
4.46813705e-04
4.46012380e-04
4.45216866e-04
4.44422727e-04
4.43627339e-04
4.42831664e-04
4.42038607e-04
4.41250311e-04
4.40466746e-04
4.39686244e-04
4.38906997e-04
4.38128199e-04
4.37350189e-04
4.36573841e-04
4.35799846e-04
4.35028377e-04
4.34259182e-04
4.33491884e-04
4.32726221e-04
4.31962127e-04
4.31199672e-04
4.30438970e-04
4.29680110e-04
4.28923133e-04
4.28168038e-04
4.27414786e-04
4.26663323e-04
4.25892294e-04
4.25113768e-04
4.24347464e-04
4.23598449e-04
4.22860151e-04
4.22124018e-04
4.21385891e-04
4.20646247e-04
4.19907209e-04
4.19170229e-04
4.18401447e-04
4.17537587e-04
4.16686182e-04
4.15906381e-04
4.15187581e-04
4.14487251e-04
4.13774389e-04
4.13044800e-04
4.12310233e-04
4.11581500e-04
4.10860767e-04
4.10144319e-04
4.09428645e-04
4.08713498e-04
4.08000826e-04
4.07292200e-04
4.06587427e-04
4.05885015e-04
4.05183487e-04
4.04482288e-04
4.03781802e-04
4.03082790e-04
4.02385830e-04
4.01691080e-04
4.00998373e-04
4.00303277e-04
3.99201366e-04
3.98062712e-04
3.97149178e-04
3.96471649e-04
3.95885490e-04
3.95255659e-04
3.94544241e-04
3.93792327e-04
3.93055272e-04
3.92357182e-04
3.91687847e-04
3.91025103e-04
3.90355311e-04
3.89678420e-04
3.89001197e-04
3.88328982e-04
3.87662505e-04
3.86999610e-04
3.86338229e-04
3.85658200e-04
3.84959549e-04
3.84271499e-04
3.83605986e-04
3.82956576e-04
3.82310738e-04
3.81660988e-04
3.81007574e-04
3.80354597e-04
3.79705249e-04
3.79059897e-04
3.78417063e-04
3.77775281e-04
3.77134142e-04
3.76494153e-04
3.75856009e-04
3.75220029e-04
3.74586051e-04
3.73953662e-04
3.73322498e-04
3.72692414e-04
3.72063478e-04
3.71435865e-04
3.70809733e-04
3.70185153e-04
3.69562102e-04
3.68940501e-04
3.68320265e-04
3.67701340e-04
3.67083709e-04
3.66467388e-04
3.65852400e-04
3.65238768e-04
3.64626500e-04
3.64015597e-04
3.63406051e-04
3.62797847e-04
3.62190972e-04
3.61585410e-04
3.60981149e-04
3.60378183e-04
3.59776509e-04
3.59176128e-04
3.58577038e-04
3.57979241e-04
3.57382732e-04
3.56787506e-04
3.56193556e-04
3.55600877e-04
3.55009463e-04
3.54419312e-04
3.53830422e-04
3.53242790e-04
3.52656413e-04
3.52071288e-04
3.51487410e-04
3.50904775e-04
3.50323376e-04
3.49743211e-04
3.49164274e-04
3.48586562e-04
3.48010072e-04
3.47434800e-04
3.46860743e-04
3.46287898e-04
3.45716260e-04
3.45145827e-04
3.44576595e-04
3.44008560e-04
3.43441719e-04
3.42876068e-04
3.42311603e-04
3.41748321e-04
3.41186219e-04
3.40625293e-04
3.40065540e-04
3.39506956e-04
3.38949537e-04
3.38393215e-04
3.37837670e-04
3.37283231e-04
3.36730120e-04
3.36178360e-04
3.35627859e-04
3.35078517e-04
3.34530287e-04
3.33983162e-04
3.33437148e-04
3.32892247e-04
3.32348465e-04
3.31805810e-04
3.31264290e-04
3.30723909e-04
3.30184660e-04
3.29646531e-04
3.29109509e-04
3.28573584e-04
3.28038751e-04
3.27505011e-04
3.26972364e-04
3.26440809e-04
3.25910344e-04
3.25380966e-04
3.24852671e-04
3.24325454e-04
3.23799312e-04
3.23274240e-04
3.22750237e-04
3.22227300e-04
3.21705426e-04
3.21184614e-04
3.20664860e-04
3.20146162e-04
3.19628515e-04
3.19111917e-04
3.18596365e-04
3.18081855e-04
3.17568384e-04
3.17055949e-04
3.16544548e-04
3.16034177e-04
3.15524835e-04
3.15016517e-04
3.14509222e-04
3.14002946e-04
3.13497686e-04
3.12993441e-04
3.12490206e-04
3.11987979e-04
3.11486758e-04
3.10986540e-04
3.10487321e-04
3.09989100e-04
3.09491873e-04
3.08995637e-04
3.08500390e-04
3.08006130e-04
3.07512853e-04
3.07020557e-04
3.06529239e-04
3.06038896e-04
3.05549527e-04
3.05061127e-04
3.04573695e-04
3.04087228e-04
3.03601722e-04
3.03117177e-04
3.02633588e-04
3.02150954e-04
3.01669271e-04
3.01188538e-04
3.00708751e-04
3.00229909e-04
2.99750154e-04
2.99269431e-04
2.98789892e-04
2.98312734e-04
2.97837959e-04
2.97364937e-04
2.96893025e-04
2.96421858e-04
2.95951321e-04
2.95481425e-04
2.95012236e-04
2.94543856e-04
2.94076405e-04
2.93609986e-04
2.93144651e-04
2.92680385e-04
2.92217129e-04
2.91754812e-04
2.91293377e-04
2.90832791e-04
2.90373043e-04
2.89914133e-04
2.89456072e-04
2.88998881e-04
2.88542580e-04
2.88087191e-04
2.87632721e-04
2.87179166e-04
2.86726507e-04
2.86274723e-04
2.85823793e-04
2.85373705e-04
2.84924461e-04
2.84476068e-04
2.84028540e-04
2.83581883e-04
2.83136101e-04
2.82691190e-04
2.82247140e-04
2.81803940e-04
2.81361580e-04
2.80920056e-04
2.80479366e-04
2.80039511e-04
2.79600493e-04
2.79162315e-04
2.78724976e-04
2.78288473e-04
2.77852804e-04
2.77417962e-04
2.76983944e-04
2.76550748e-04
2.76118370e-04
2.75686810e-04
2.74957998e-04
2.73908468e-04
2.72990441e-04
2.72403067e-04
2.72059305e-04
2.71763428e-04
2.71383512e-04
2.70904077e-04
2.70380346e-04
2.69871084e-04
2.69402791e-04
2.68970881e-04
2.68557256e-04
2.68144343e-04
2.67723440e-04
2.67294296e-04
2.66860972e-04
2.66428181e-04
2.65999595e-04
2.65577145e-04
2.65160048e-04
2.64745574e-04
2.64330903e-04
2.63914765e-04
2.63497782e-04
2.63081543e-04
2.62667312e-04
2.62255306e-04
2.61844851e-04
2.61434931e-04
2.61025332e-04
2.60616107e-04
2.60207551e-04
2.59800020e-04
2.59393649e-04
2.58988341e-04
2.58583889e-04
2.58180126e-04
2.57777006e-04
2.57374584e-04
2.56972948e-04
2.56572155e-04
2.56172204e-04
2.55773053e-04
2.55374655e-04
2.54976986e-04
2.54580048e-04
2.54183861e-04
2.53788445e-04
2.53393805e-04
2.52999932e-04
2.52606813e-04
2.52214433e-04
2.51822788e-04
2.51431878e-04
2.51041708e-04
2.50652280e-04
2.50263593e-04
2.49875644e-04
2.49488425e-04
2.49101932e-04
2.48716162e-04
2.48331114e-04
2.47946787e-04
2.47563183e-04
2.47180300e-04
2.46798135e-04
2.46416686e-04
2.46035949e-04
2.45655921e-04
2.45276602e-04
2.44897989e-04
2.44520081e-04
2.44142876e-04
2.43766372e-04
2.43390566e-04
2.43007225e-04
2.42561505e-04
2.42115020e-04
2.41707012e-04
2.41335948e-04
2.40978310e-04
2.40614509e-04
2.40240113e-04
2.39861163e-04
2.39484451e-04
2.39112210e-04
2.38742925e-04
2.38374595e-04
2.38006684e-04
2.37639818e-04
2.37274540e-04
2.36910634e-04
2.36547392e-04
2.36184275e-04
2.35821282e-04
2.35458815e-04
2.35097291e-04
2.34736870e-04
2.34377433e-04
2.34018746e-04
2.33660627e-04
2.33303023e-04
2.32945983e-04
2.32589587e-04
2.32233895e-04
2.31878928e-04
2.31524671e-04
2.31171092e-04
2.30818159e-04
2.30465847e-04
2.30114146e-04
2.29763060e-04
2.29412604e-04
2.29062793e-04
2.28713637e-04
2.28365135e-04
2.28017276e-04
2.27670048e-04
2.27323438e-04
2.26977440e-04
2.26632056e-04
2.26281258e-04
2.25920311e-04
2.25562200e-04
2.25213748e-04
2.24873363e-04
2.24535506e-04
2.24195979e-04
2.23854065e-04
2.23511427e-04
2.23169925e-04
2.22830309e-04
2.22492260e-04
2.22155109e-04
2.21818426e-04
2.21482143e-04
2.21146372e-04
2.20811204e-04
2.20476655e-04
2.20142712e-04
2.19809383e-04
2.19476694e-04
2.19144664e-04
2.18813275e-04
2.18482489e-04
2.18152269e-04
2.17822605e-04
2.17493510e-04
2.17165005e-04
2.16837101e-04
2.16509795e-04
2.16183076e-04
2.15856932e-04
2.15531355e-04
2.15206347e-04
2.14881910e-04
2.14558048e-04
2.14234760e-04
2.13912045e-04
2.13589900e-04
2.13268321e-04
2.12947307e-04
2.12626855e-04
2.12306966e-04
2.11987638e-04
2.11668869e-04
2.11350659e-04
2.11033006e-04
2.10715908e-04
2.10399364e-04
2.10083372e-04
2.09767932e-04
2.09453041e-04
2.09138699e-04
2.08824904e-04
2.08511655e-04
2.08198952e-04
2.07886792e-04
2.07575174e-04
2.07264098e-04
2.06953562e-04
2.06643564e-04
2.06334104e-04
2.06025180e-04
2.05716790e-04
2.05408935e-04
2.05101612e-04
2.04794820e-04
2.04488558e-04
2.04182825e-04
2.03877619e-04
2.03572940e-04
2.03268785e-04
2.02965155e-04
2.02662048e-04
2.02359462e-04
2.02057396e-04
2.01755693e-04
2.01454462e-04
2.01153815e-04
2.00853776e-04
2.00554306e-04
2.00255352e-04
1.99956885e-04
1.99658905e-04
1.99361420e-04
1.99064449e-04
1.98768001e-04
1.98472072e-04
1.98176656e-04
1.97881745e-04
1.97587337e-04
1.97293428e-04
1.97000019e-04
1.96707109e-04
1.96399460e-04
1.96076368e-04
1.95761239e-04
1.95463462e-04
1.95177611e-04
1.94893504e-04
1.94605172e-04
1.94312884e-04
1.94019981e-04
1.93729111e-04
1.93440773e-04
1.93154031e-04
1.92867844e-04
1.92581778e-04
1.92295929e-04
1.92010532e-04
1.91725709e-04
1.91441458e-04
1.91157747e-04
1.90874576e-04
1.90591960e-04
1.90309898e-04
1.90028355e-04
1.89747287e-04
1.89466666e-04
1.89186491e-04
1.88906779e-04
1.88627545e-04
1.88348797e-04
1.88070531e-04
1.87792740e-04
1.87515417e-04
1.87238561e-04
1.86962172e-04
1.86686251e-04
1.86410797e-04
1.86135807e-04
1.85861276e-04
1.85587203e-04
1.85313586e-04
1.85040424e-04
1.84767719e-04
1.84495471e-04
1.84223679e-04
1.83952343e-04
1.83681461e-04
1.83411031e-04
1.83141051e-04
1.82871521e-04
1.82602438e-04
1.82333803e-04
1.82065615e-04
1.81797872e-04
1.81530574e-04
1.81263720e-04
1.80997309e-04
1.80731340e-04
1.80465812e-04
1.80200724e-04
1.79936075e-04
1.79671864e-04
1.79408090e-04
1.79144752e-04
1.78881850e-04
1.78619382e-04
1.78357347e-04
1.78095746e-04
1.77834575e-04
1.77573836e-04
1.77313527e-04
1.77053646e-04
1.76794194e-04
1.76535169e-04
1.76276570e-04
1.76018397e-04
1.75760648e-04
1.75503323e-04
1.75246420e-04
1.74989939e-04
1.74733879e-04
1.74478239e-04
1.74223019e-04
1.73968217e-04
1.73713832e-04
1.73459864e-04
1.73206311e-04
1.72953174e-04
1.72700450e-04
1.72448140e-04
1.72196242e-04
1.71944755e-04
1.71693680e-04
1.71443013e-04
1.71192756e-04
1.70942907e-04
1.70693466e-04
1.70444431e-04
1.70195801e-04
1.69947576e-04
1.69699755e-04
1.69452338e-04
1.69205322e-04
1.68958708e-04
1.68712495e-04
1.68466682e-04
1.68221268e-04
1.67976252e-04
1.67731633e-04
1.67487411e-04
1.67243585e-04
1.67000154e-04
1.66757117e-04
1.66514474e-04
1.66272223e-04
1.66030364e-04
1.65788896e-04
1.65547818e-04
1.65307130e-04
1.65066831e-04
1.64826919e-04
1.64587395e-04
1.64348257e-04
1.64109505e-04
1.63871137e-04
1.63633154e-04
1.63395553e-04
1.63158336e-04
1.62921500e-04
1.62685045e-04
1.62448970e-04
1.62213275e-04
1.61977959e-04
1.61743020e-04
1.61508459e-04
1.61274274e-04
1.61040465e-04
1.60807031e-04
1.60573971e-04
1.60341285e-04
1.60108971e-04
1.59877030e-04
1.59645460e-04
1.59414260e-04
1.59183430e-04
1.58952969e-04
1.58722877e-04
1.58493152e-04
1.58263794e-04
1.58034803e-04
1.57806177e-04
1.57577916e-04
1.57350018e-04
1.57122484e-04
1.56895313e-04
1.56668504e-04
1.56442056e-04
1.56215968e-04
1.55990240e-04
1.55764872e-04
1.55539861e-04
1.55315209e-04
1.55090913e-04
1.54866974e-04
1.54643390e-04
1.54420161e-04
1.54197287e-04
1.53974766e-04
1.53752598e-04
1.53530782e-04
1.53309318e-04
1.53088205e-04
1.52867441e-04
1.52647027e-04
1.52426962e-04
1.52207245e-04
1.51987876e-04
1.51768853e-04
1.51550177e-04
1.51331846e-04
1.51113859e-04
1.50896217e-04
1.50678919e-04
1.50461963e-04
1.50245349e-04
1.50029077e-04
1.49813145e-04
1.49597554e-04
1.49382303e-04
1.49167390e-04
1.48952816e-04
1.48738579e-04
1.48524679e-04
1.48311115e-04
1.48097887e-04
1.47884994e-04
1.47672436e-04
1.47460211e-04
1.47248320e-04
1.47036761e-04
1.46825534e-04
1.46614638e-04
1.46404072e-04
1.46193837e-04
1.45983931e-04
1.45774354e-04
1.45565105e-04
1.45356183e-04
1.45147589e-04
1.44939320e-04
1.44731378e-04
1.44523760e-04
1.44316467e-04
1.44109497e-04
1.43902851e-04
1.43696528e-04
1.43490526e-04
1.43284846e-04
1.43079486e-04
1.42874447e-04
1.42669728e-04
1.42465327e-04
1.42261245e-04
1.42057481e-04
1.41854033e-04
1.41650903e-04
1.41448088e-04
1.41245589e-04
1.41043405e-04
1.40841535e-04
1.40639979e-04
1.40438736e-04
1.40237806e-04
1.40037187e-04
1.39836880e-04
1.39636883e-04
1.39437197e-04
1.39237820e-04
1.39038753e-04
1.38839994e-04
1.38641543e-04
1.38443399e-04
1.38245562e-04
1.38048031e-04
1.37850806e-04
1.37653886e-04
1.37457271e-04
1.37260959e-04
1.37064951e-04
1.36869246e-04
1.36673843e-04
1.36478742e-04
1.36283942e-04
1.36089443e-04
1.35895244e-04
1.35701344e-04
1.35507744e-04
1.35314441e-04
1.35121437e-04
1.34928730e-04
1.34736320e-04
1.34544206e-04
1.34352388e-04
1.34160865e-04
1.33969637e-04
1.33778703e-04
1.33588062e-04
1.33397715e-04
1.33207660e-04
1.33017897e-04
1.32828425e-04
1.32639245e-04
1.32450354e-04
1.32261754e-04
1.32073443e-04
1.31885421e-04
1.31697687e-04
1.31510241e-04
1.31323082e-04
1.31136210e-04
1.30949625e-04
1.30763325e-04
1.30577310e-04
1.30391580e-04
1.30206134e-04
1.30020971e-04
1.29836092e-04
1.29651496e-04
1.29467181e-04
1.29283148e-04
1.29099397e-04
1.28915926e-04
1.28732735e-04
1.28549824e-04
1.28367191e-04
1.28184838e-04
1.28002762e-04
1.27820965e-04
1.27639444e-04
1.27458200e-04
1.27277232e-04
1.27096540e-04
1.26916123e-04
1.26735980e-04
1.26556112e-04
1.26376518e-04
1.26197196e-04
1.26018148e-04
1.25839371e-04
1.25660867e-04
1.25482633e-04
1.25304671e-04
1.25126978e-04
1.24949556e-04
1.24772403e-04
1.24595518e-04
1.24418903e-04
1.24242555e-04
1.24066474e-04
1.23890661e-04
1.23715114e-04
1.23539833e-04
1.23364818e-04
1.23190067e-04
1.23015582e-04
1.22841360e-04
1.22667403e-04
1.22493708e-04
1.22320276e-04
1.22147107e-04
1.21974200e-04
1.21801553e-04
1.21629168e-04
1.21457044e-04
1.21285179e-04
1.21113574e-04
1.20942228e-04
1.20771141e-04
1.20600312e-04
1.20429740e-04
1.20259426e-04
1.20089369e-04
1.19919568e-04
1.19750024e-04
1.19580734e-04
1.19411700e-04
1.19242921e-04
1.19074395e-04
1.18906124e-04
1.18738106e-04
1.18570340e-04
1.18402827e-04
1.18235566e-04
1.18068557e-04
1.17901799e-04
1.17735291e-04
1.17569034e-04
1.17403026e-04
1.17237268e-04
1.17071759e-04
1.16906498e-04
1.16741486e-04
1.16576721e-04
1.16412203e-04
1.16247932e-04
1.16083908e-04
1.15920129e-04
1.15756596e-04
1.15593308e-04
1.15430265e-04
1.15267466e-04
1.15104912e-04
1.14942600e-04
1.14780531e-04
1.14618705e-04
1.14457122e-04
1.14295780e-04
1.14134679e-04
1.13973820e-04
1.13813200e-04
1.13652821e-04
1.13492682e-04
1.13332782e-04
1.13173121e-04
1.13013698e-04
1.12854514e-04
1.12695567e-04
1.12536857e-04
1.12378385e-04
1.12220148e-04
1.12062148e-04
1.11904383e-04
1.11746854e-04
1.11589560e-04
1.11432500e-04
1.11275674e-04
1.11119081e-04
1.10962722e-04
1.10806596e-04
1.10650702e-04
1.10495041e-04
1.10339611e-04
1.10184412e-04
1.10029444e-04
1.09874707e-04
1.09720200e-04
1.09565923e-04
1.09411875e-04
1.09258056e-04
1.09104465e-04
1.08951103e-04
1.08797968e-04
1.08645061e-04
1.08492381e-04
1.08339927e-04
1.08187700e-04
1.08035699e-04
1.07883923e-04
1.07732373e-04
1.07581047e-04
1.07429945e-04
1.07279068e-04
1.07128414e-04
1.06977983e-04
1.06827775e-04
1.06677790e-04
1.06528027e-04
1.06378485e-04
1.06229165e-04
1.06080066e-04
1.05931188e-04
1.05782530e-04
1.05634092e-04
1.05485873e-04
1.05337874e-04
1.05190093e-04
1.05042531e-04
1.04895187e-04
1.04748060e-04
1.04601151e-04
1.04454459e-04
1.04307984e-04
1.04161724e-04
1.04015681e-04
1.03869853e-04
1.03724241e-04
1.03578843e-04
1.03433660e-04
1.03288691e-04
1.03143936e-04
1.02999394e-04
1.02855065e-04
1.02710949e-04
1.02567045e-04
1.02423353e-04
1.02279873e-04
1.02136604e-04
1.01993547e-04
1.01850699e-04
1.01708062e-04
1.01565635e-04
1.01423418e-04
1.01281409e-04
1.01139610e-04
1.00998019e-04
1.00856636e-04
1.00715462e-04
1.00574494e-04
1.00433734e-04
1.00293181e-04
1.00152834e-04
1.00012693e-04
9.98727582e-05
