-964.47109
-964.50042
-964.54703
-964.60743
-964.67132
-964.7285
-964.77339
-964.8091
-964.84207
-964.87544
-964.90905
-964.94148
-964.97136
-964.99888
-965.02515
-965.05079
-965.07579
-965.09979
-965.12256
-965.14428
-965.16519
-965.18547
-965.20521
-965.22436
-965.24289
-965.26086
-965.27825
-965.29513
-965.31159
-965.32761
-965.34316
-965.35827
-965.37294
-965.38724
-965.40119
-965.41482
-965.42813
-965.44116
-965.45388
-965.46631
-965.47846
-965.49033
-965.50197
-965.51338
-965.52453
-965.53543
-965.54608
-965.5565
-965.56672
-965.57673
-965.58654
-965.59614
-965.60554
-965.61474
-965.62373
-965.63254
-965.6412
-965.64972
-965.65808
-965.66628
-965.67433
-965.68223
-965.68997
-965.69758
-965.70504
-965.71238
-965.71959
-965.72669
-965.73367
-965.74053
-965.74728
-965.75391
-965.76043
-965.76683
-965.77311
-965.77928
-965.78535
-965.79131
-965.79718
-965.80295
-965.80863
-965.81422
-965.81971
-965.82512
-965.83045
-965.83569
-965.84085
-965.84592
-965.85091
-965.85582
-965.86065
-965.86541
-965.87009
-965.8747
-965.87923
-965.8837
-965.88809
-965.89241
-965.89665
-965.90082
-965.90493
-965.90898
-965.91297
-965.9169
-965.92076
-965.92456
-965.92831
-965.93198
-965.9356
-965.93917
-965.94268
-965.94614
-965.94953
-965.95287
-965.95616
-965.95939
-965.96257
-965.96571
-965.96881
-965.97187
-965.97487
-965.97784
-965.98075
-965.98361
-965.98643
-965.98921
-965.99195
-965.99466
-965.99732
-965.99995
-966.00254
-966.00509
-966.00761
-966.01008
-966.01251
-966.01491
-966.01727
-966.0196
-966.0219
-966.02415
-966.02638
-966.02857
-966.03073
-966.03287
-966.03499
-966.03707
-966.03912
-966.04115
-966.04314
-966.0451
-966.04703
-966.04893
-966.05081
-966.05266
-966.05448
-966.05629
-966.05806
-966.05982
-966.06155
-966.06325
-966.06493
-966.06658
-966.06822
-966.06983
-966.07142
-966.07299
-966.07453
-966.07605
-966.07755
-966.07903
-966.08049
-966.08192
-966.08333
-966.08472
-966.0861
-966.08746
-966.0888
-966.09013
-966.09144
-966.09273
-966.094
-966.09526
-966.0965
-966.09773
-966.09894
-966.10014
-966.10132
-966.10248
-966.10364
-966.10477
-966.10588
-966.10698
-966.10806
-966.10914
-966.1102
-966.11126
-966.1123
-966.11333
-966.11435
-966.11535
-966.11634
-966.11731
-966.11827
-966.11922
-966.12016
-966.12108
-966.122
-966.1229
-966.1238
-966.12468
-966.12555
-966.12641
-966.12726
-966.1281
-966.12892
-966.12973
-966.13054
-966.13133
-966.13211
-966.13289
-966.13366
-966.13442
-966.13517
-966.1359
-966.13663
-966.13735
-966.13807
-966.13877
-966.13947
-966.14015
-966.14083
-966.14151
-966.14217
-966.14283
-966.14348
-966.14412
-966.14476
-966.14539
-966.14601
-966.14662
-966.14723
-966.14783
-966.14842
-966.14901
-966.1496
-966.15017
-966.15074
-966.1513
-966.15185
-966.1524
-966.15294
-966.15347
-966.154
-966.15453
-966.15504
-966.15555
-966.15605
-966.15655
-966.15704
-966.15753
-966.15802
-966.1585
-966.15897
-966.15944
-966.1599
-966.16036
-966.16081
-966.16125
-966.16169
-966.16212
-966.16255
-966.16297
-966.16339
-966.16381
-966.16423
-966.16464
-966.16504
-966.16544
-966.16584
-966.16623
-966.16661
-966.167
-966.16737
-966.16775
-966.16812
-966.16849
-966.16886
-966.16922
-966.16957
-966.16992
-966.17027
-966.17062
-966.17096
-966.1713
-966.17163
-966.17196
-966.17229
-966.17262
-966.17294
-966.17326
-966.17357
-966.17388
-966.17418
-966.17448
-966.17478
-966.17508
-966.17538
-966.17567
-966.17596
-966.17625
-966.17653
-966.17681
-966.17708
-966.17735
-966.17762
-966.17789
-966.17816
-966.17842
-966.17868
-966.17894
-966.17919
-966.17944
-966.17969
-966.17994
-966.18018
-966.18042
-966.18066
-966.1809
-966.18114
-966.18137
-966.1816
-966.18183
-966.18206
-966.18228
-966.1825
-966.18272
-966.18294
-966.18315
-966.18336
-966.18357
-966.18378
-966.18399
-966.1842
-966.1844
-966.1846
-966.1848
-966.185
-966.18519
-966.18538
-966.18557
-966.18576
-966.18595
-966.18614
-966.18632
-966.1865
-966.18668
-966.18686
-966.18704
-966.18721
-966.18739
-966.18756
-966.18773
-966.1879
-966.18806
-966.18823
-966.18839
-966.18856
-966.18872
-966.18887
-966.18903
-966.18919
-966.18934
-966.18949
-966.18964
-966.18979
-966.18994
-966.19009
-966.19024
-966.19038
-966.19052
-966.19066
-966.1908
-966.19094
-966.19108
-966.19122
-966.19135
-966.19149
-966.19162
-966.19175
-966.19188
-966.19201
-966.19214
-966.19227
-966.19239
-966.19251
-966.19264
-966.19276
-966.19288
-966.193
-966.19312
-966.19324
-966.19335
-966.19347
-966.19358
-966.1937
-966.19381
-966.19392
-966.19403
-966.19413
-966.19424
-966.19435
-966.19446
-966.19456
-966.19467
-966.19477
-966.19487
-966.19497
-966.19507
-966.19517
-966.19527
-966.19537
-966.19547
-966.19556
-966.19566
-966.19575
-966.19584
-966.19594
-966.19603
-966.19612
-966.19621
-966.1963
-966.19639
-966.19647
-966.19656
-966.19665
-966.19673
-966.19682
-966.1969
-966.19698
-966.19707
-966.19715
-966.19723
-966.19731
-966.19739
-966.19747
-966.19755
-966.19762
-966.1977
-966.19778
-966.19785
-966.19793
-966.198
-966.19807
-966.19815
-966.19822
-966.19829
-966.19836
-966.19843
-966.1985
-966.19857
-966.19864
-966.19871
-966.19878
-966.19884
-966.19891
-966.19897
-966.19904
-966.1991
-966.19917
-966.19923
-966.19929
-966.19936
-966.19942
-966.19948
-966.19954
-966.1996
-966.19966
-966.19972
-966.19978
-966.19984
-966.1999
-966.19995
-966.20001
-966.20007
-966.20012
-966.20018
-966.20023
-966.20029
-966.20034
-966.2004
-966.20045
-966.2005
-966.20055
-966.2006
-966.20066
-966.20071
-966.20076
-966.20081
-966.20085
-966.2009
-966.20095
-966.201
-966.20105
-966.2011
-966.20115
-966.20119
-966.20124
-966.20128
-966.20133
-966.20137
-966.20142
-966.20146
-966.20151
-966.20155
-966.2016
-966.20164
-966.20168
-966.20173
-966.20177
-966.20181
-966.20185
-966.20189
-966.20193
-966.20197
-966.20201
-966.20205
-966.20209
-966.20213
-966.20217
-966.20221
-966.20225
-966.20228
-966.20232
-966.20236
-966.20239
-966.20243
-966.20247
-966.20251
-966.20254
-966.20258
-966.20261
-966.20265
-966.20268
-966.20272
-966.20275
-966.20278
-966.20282
-966.20285
-966.20289
-966.20292
-966.20295
-966.20298
-966.20301
-966.20304
-966.20308
-966.20311
-966.20314
-966.20317
-966.2032
-966.20323
-966.20326
-966.20329
-966.20332
-966.20335
-966.20338
-966.20341
-966.20344
-966.20346
-966.20349
-966.20352
-966.20355
-966.20357
-966.2036
-966.20363
-966.20366
-966.20368
-966.20371
-966.20374
-966.20376
-966.20379
-966.20381
-966.20384
-966.20386
-966.20389
-966.20391
-966.20394
-966.20396
-966.20399
-966.20401
-966.20404
-966.20406
-966.20408
-966.20411
-966.20413
-966.20415
-966.20417
-966.2042
-966.20422
-966.20424
-966.20426
-966.20429
-966.20431
-966.20433
-966.20435
-966.20437
-966.20439
-966.20441
-966.20443
-966.20445
-966.20447
-966.2045
-966.20452
-966.20454
-966.20456
-966.20458
-966.2046
-966.20462
-966.20463
-966.20465
-966.20467
-966.20469
-966.20471
-966.20473
-966.20475
-966.20477
-966.20478
-966.2048
-966.20482
-966.20484
-966.20486
-966.20487
-966.20489
-966.20491
-966.20493
-966.20494
-966.20496
-966.20498
-966.20499
-966.20501
-966.20502
-966.20504
-966.20506
-966.20507
-966.20509
-966.20511
-966.20512
-966.20514
-966.20515
-966.20517
-966.20518
-966.2052
-966.20521
-966.20523
-966.20524
-966.20526
-966.20527
-966.20529
-966.2053
-966.20532
-966.20533
-966.20534
-966.20536
-966.20537
-966.20538
-966.2054
-966.20541
-966.20542
-966.20544
-966.20545
-966.20547
-966.20548
-966.20549
-966.2055
-966.20552
-966.20553
-966.20554
-966.20555
-966.20557
-966.20558
-966.20559
-966.2056
-966.20561
-966.20563
-966.20564
-966.20565
-966.20566
-966.20567
-966.20569
-966.2057
-966.20571
-966.20572
-966.20573
-966.20574
-966.20575
-966.20576
-966.20578
-966.20579
-966.2058
-966.20581
-966.20582
-966.20583
-966.20584
-966.20585
-966.20586
-966.20587
-966.20588
-966.20589
-966.2059
-966.20591
-966.20592
-966.20593
-966.20594
-966.20595
-966.20596
-966.20597
-966.20598
-966.20599
-966.20599
-966.206
-966.20601
-966.20602
-966.20603
-966.20604
-966.20605
-966.20606
-966.20607
-966.20608
-966.20608
-966.20609
-966.2061
-966.20611
-966.20612
-966.20613
-966.20613
-966.20614
-966.20615
-966.20616
-966.20617
-966.20617
-966.20618
-966.20619
-966.2062
-966.20621
-966.20621
-966.20622
-966.20623
-966.20624
-966.20624
-966.20625
-966.20626
-966.20627
-966.20627
-966.20628
-966.20629
-966.20629
-966.2063
-966.20631
-966.20632
-966.20632
-966.20633
-966.20634
-966.20634
-966.20635
-966.20636
-966.20636
-966.20637
-966.20638
-966.20638
-966.20639
-966.2064
-966.2064
-966.20641
-966.20642
-966.20642
-966.20643
-966.20643
-966.20644
-966.20645
-966.20645
-966.20646
-966.20646
-966.20647
-966.20648
-966.20648
-966.20649
-966.20649
-966.2065
-966.2065
-966.20651
-966.20652
-966.20652
-966.20653
-966.20653
-966.20654
-966.20654
-966.20655
-966.20655
-966.20656
-966.20656
-966.20657
-966.20657
-966.20658
-966.20658
-966.20659
-966.20659
-966.2066
-966.2066
-966.20661
-966.20661
-966.20662
-966.20662
-966.20663
-966.20663
-966.20664
-966.20664
-966.20665
-966.20665
-966.20666
-966.20666
-966.20667
-966.20667
-966.20668
-966.20668
-966.20668
-966.20669
-966.20669
-966.2067
-966.2067
-966.20671
-966.20671
-966.20671
-966.20672
-966.20672
-966.20673
-966.20673
-966.20674
-966.20674
-966.20674
-966.20675
-966.20675
-966.20676
-966.20676
-966.20676
-966.20677
-966.20677
-966.20677
-966.20678
-966.20678
-966.20679
-966.20679
-966.20679
-966.2068
-966.2068
-966.2068
-966.20681
-966.20681
-966.20682
-966.20682
-966.20682
-966.20683
-966.20683
-966.20683
-966.20684
-966.20684
-966.20684
-966.20685
-966.20685
-966.20685
-966.20686
-966.20686
-966.20686
-966.20687
-966.20687
-966.20687
-966.20688
-966.20688
-966.20688
-966.20689
-966.20689
-966.20689
-966.2069
-966.2069
-966.2069
-966.20691
-966.20691
-966.20691
-966.20691
-966.20692
-966.20692
-966.20692
-966.20693
-966.20693
-966.20693
-966.20694
-966.20694
-966.20694
-966.20694
-966.20695
-966.20695
-966.20695
-966.20695
-966.20696
-966.20696
-966.20696
-966.20697
-966.20697
-966.20697
-966.20697
-966.20698
-966.20698
-966.20698
-966.20698
-966.20699
-966.20699
-966.20699
-966.20699
-966.207
-966.207
-966.207
-966.207
-966.20701
-966.20701
-966.20701
-966.20701
-966.20702
-966.20702
-966.20702
-966.20702
-966.20703
-966.20703
-966.20703
-966.20703
-966.20703
-966.20704
-966.20704
-966.20704
-966.20704
-966.20705
-966.20705
-966.20705
-966.20705
-966.20705
-966.20706
-966.20706
-966.20706
-966.20706
-966.20706
-966.20707
-966.20707
-966.20707
-966.20707
-966.20708
-966.20708
-966.20708
-966.20708
-966.20708
-966.20708
-966.20709
-966.20709
-966.20709
-966.20709
-966.20709
-966.2071
-966.2071
-966.2071
-966.2071
-966.2071
-966.20711
-966.20711
-966.20711
-966.20711
-966.20711
-966.20711
-966.20712
-966.20712
-966.20712
-966.20712
-966.20712
-966.20713
-966.20713
-966.20713
-966.20713
-966.20713
-966.20713
-966.20714
-966.20714
-966.20714
-966.20714
-966.20714
-966.20714
-966.20715
-966.20715
-966.20715
-966.20715
-966.20715
-966.20715
-966.20715
-966.20716
-966.20716
-966.20716
-966.20716
-966.20716
-966.20716
-966.20717
-966.20717
-966.20717
-966.20717
-966.20717
-966.20717
-966.20717
-966.20718
-966.20718
-966.20718
-966.20718
-966.20718
-966.20718
-966.20718
-966.20719
-966.20719
-966.20719
-966.20719
-966.20719
-966.20719
-966.20719
-966.2072
-966.2072
-966.2072
-966.2072
-966.2072
-966.2072
-966.2072
-966.2072
-966.20721
-966.20721
-966.20721
-966.20721
-966.20721
-966.20721
-966.20721
-966.20721
-966.20722
-966.20722
-966.20722
-966.20722
-966.20722
-966.20722
-966.20722
-966.20722
-966.20722
-966.20723
-966.20723
-966.20723
-966.20723
-966.20723
-966.20723
-966.20723
-966.20723
-966.20724
-966.20724
-966.20724
-966.20724
-966.20724
-966.20724
-966.20724
-966.20724
-966.20724
-966.20724
-966.20725
-966.20725
-966.20725
-966.20725
-966.20725
-966.20725
-966.20725
-966.20725
-966.20725
-966.20725
-966.20726
-966.20726
-966.20726
-966.20726
-966.20726
-966.20726
-966.20726
-966.20726
-966.20726
-966.20726
-966.20727
-966.20727
-966.20727
-966.20727
-966.20727
-966.20727
-966.20727
-966.20727
-966.20727
-966.20727
-966.20727
-966.20728
-966.20728
-966.20728
-966.20728
-966.20728
-966.20728
-966.20728
-966.20728
-966.20728
-966.20728
-966.20728
-966.20729
-966.20729
-966.20729
-966.20729
-966.20729
-966.20729
-966.20729
-966.20729
-966.20729
-966.20729
-966.20729
-966.20729
-966.20729
-966.2073
-966.2073
-966.2073
-966.2073
-966.2073
-966.2073
-966.2073
-966.2073
-966.2073
-966.2073
-966.2073
-966.2073
-966.2073
-966.20731
-966.20731
-966.20731
-966.20731
-966.20731
-966.20731
-966.20731
-966.20731
-966.20731
-966.20731
-966.20731
-966.20731
-966.20731
-966.20731
-966.20732
-966.20732
-966.20732
-966.20732
-966.20732
-966.20732
-966.20732
-966.20732
-966.20732
-966.20732
-966.20732
-966.20732
-966.20732
-966.20732
-966.20732
-966.20732
-966.20732
-966.20733
-966.20733
-966.20733
-966.20733
-966.20733
-966.20733
-966.20733
-966.20733
-966.20733
-966.20733
-966.20733
-966.20733
-966.20733
-966.20733
-966.20733
-966.20733
-966.20733
-966.20734
-966.20734
-966.20734
-966.20734
-966.20734
-966.20734
-966.20734
-966.20734
-966.20734
-966.20734
-966.20734
-966.20734
-966.20734
-966.20734
-966.20734
-966.20734
-966.20734
-966.20734
-966.20735
-966.20735
-966.20735
-966.20735
-966.20735
-966.20735
-966.20735
-966.20735
-966.20735
-966.20735
-966.20735
-966.20735
-966.20735
-966.20735
-966.20735
-966.20735
-966.20735
-966.20735
-966.20735
-966.20735
-966.20736
-966.20736
-966.20736
-966.20736
-966.20736
-966.20736
-966.20736
-966.20736
-966.20736
-966.20736
-966.20736
-966.20736
-966.20736
-966.20736
-966.20736
-966.20736
-966.20736
-966.20736
-966.20736
-966.20736
-966.20736
-966.20736
-966.20736
-966.20737
-966.20737
-966.20737
-966.20737
-966.20737
-966.20737
-966.20737
-966.20737
-966.20737
-966.20737
-966.20737
-966.20737
-966.20737
-966.20737
-966.20737
-966.20737
-966.20737
-966.20737
-966.20737
-966.20737
-966.20737
-966.20737
-966.20737
-966.20737
-966.20737
-966.20737
-966.20738
-966.20738
-966.20738
-966.20738
-966.20738
-966.20738
-966.20738
-966.20738
-966.20738
-966.20738
-966.20738
-966.20738
-966.20738
-966.20738
-966.20738
-966.20738
-966.20738
-966.20738
-966.20738
-966.20738
-966.20738
-966.20738
-966.20738
-966.20738
-966.20738
-966.20738
-966.20738
-966.20738
-966.20739
-966.20739
-966.20739
-966.20739
-966.20739
-966.20739
-966.20739
-966.20739
-966.20739
-966.20739
-966.20739
-966.20739
-966.20739
-966.20739
-966.20739
-966.20739
-966.20739
-966.20739
-966.20739
-966.20739
-966.20739
-966.20739
-966.20739
-966.20739
-966.20739
-966.20739
-966.20739
-966.20739
-966.20739
-966.20739
-966.20739
-966.20739
-966.20739
-966.2074
-966.2074
-966.2074
-966.2074
-966.2074
-966.2074
-966.2074
-966.2074
-966.2074
-966.2074
-966.2074
-966.2074
-966.2074
-966.2074
-966.2074
-966.2074
-966.2074
-966.2074
-966.2074
-966.2074
-966.2074
-966.2074
-966.2074
-966.2074
-966.2074
-966.2074
-966.2074
-966.2074
-966.2074
-966.2074
-966.2074
-966.2074
-966.2074
-966.2074
-966.2074
-966.2074
-966.2074
-966.2074
-966.2074
-966.20741
-966.20741
-966.20741
-966.20741
-966.20741
-966.20741
-966.20741
-966.20741
-966.20741
-966.20741
-966.20741
-966.20741
-966.20741
-966.20741
-966.20741
-966.20741
-966.20741
-966.20741
-966.20741
-966.20741
-966.20741
-966.20741
-966.20741
-966.20741
-966.20741
-966.20741
-966.20741
-966.20741
-966.20741
-966.20741
-966.20741
-966.20741
-966.20741
-966.20741
-966.20741
-966.20741
-966.20741
-966.20741
-966.20741
-966.20741
-966.20741
-966.20741
-966.20741
-966.20741
-966.20741
-966.20741
-966.20742
-966.20742
-966.20742
-966.20742
-966.20742
-966.20742
-966.20742
-966.20742
-966.20742
-966.20742
-966.20742
-966.20742
-966.20742
-966.20742
-966.20742
-966.20742
-966.20742
-966.20742
-966.20742
-966.20742
-966.20742
-966.20742
-966.20742
-966.20742
-966.20742
-966.20742
-966.20742
-966.20742
-966.20742
-966.20742
-966.20742
-966.20742
-966.20742
-966.20742
-966.20742
-966.20742
-966.20742
-966.20742
-966.20742
-966.20742
-966.20742
-966.20742
-966.20742
-966.20742
-966.20742
-966.20742
-966.20742
-966.20742
-966.20742
-966.20742
-966.20742
-966.20742
-966.20742
-966.20742
-966.20742
-966.20743
-966.20743
-966.20743
-966.20743
-966.20743
-966.20743
-966.20743
-966.20743
-966.20743
-966.20743
-966.20743
-966.20743
-966.20743
-966.20743
-966.20743
-966.20743
-966.20743
-966.20743
-966.20743
-966.20743
-966.20743
-966.20743
-966.20743
-966.20743
-966.20743
-966.20743
-966.20743
-966.20743
-966.20743
-966.20743
-966.20743
-966.20743
-966.20743
-966.20743
-966.20743
-966.20743
-966.20743
-966.20743
-966.20743
-966.20743
-966.20743
-966.20743
-966.20743
-966.20743
-966.20743
-966.20743
-966.20743
-966.20743
-966.20743
-966.20743
-966.20743
-966.20743
-966.20743
-966.20743
-966.20743
-966.20743
-966.20743
-966.20743
-966.20743
-966.20743
-966.20743
-966.20743
-966.20743
-966.20743
-966.20743
-966.20743
-966.20743
-966.20743
-966.20743
-966.20743
-966.20743
-966.20743
-966.20744
-966.20744
-966.20744
-966.20744
-966.20744
-966.20744
-966.20744
-966.20744
-966.20744
-966.20744
-966.20744
-966.20744
-966.20744
-966.20744
-966.20744
-966.20744
-966.20744
-966.20744
-966.20744
-966.20744
-966.20744
-966.20744
-966.20744
-966.20744
-966.20744
-966.20744
-966.20744
-966.20744
-966.20744
-966.20744
-966.20744
-966.20744
-966.20744
-966.20744
-966.20744
-966.20744
-966.20744
-966.20744
-966.20744
-966.20744
-966.20744
-966.20744
-966.20744
-966.20744
-966.20744
-966.20744
-966.20744
-966.20744
-966.20744
-966.20744
-966.20744
-966.20744
-966.20744
-966.20744
-966.20744
-966.20744
-966.20744
-966.20744
-966.20744
-966.20744
-966.20744
-966.20744
-966.20744
-966.20744
-966.20744
-966.20744
-966.20744
-966.20744
-966.20744
-966.20744
-966.20744
-966.20744
-966.20744
-966.20744
-966.20744
-966.20744
-966.20744
-966.20744
-966.20744
-966.20744
-966.20744
-966.20744
-966.20744
-966.20744
-966.20744
-966.20744
-966.20744
-966.20744
-966.20744
-966.20744
-966.20744
-966.20744
-966.20744
-966.20744
-966.20744
-966.20744
-966.20744
-966.20745
-966.20745
-966.20745
-966.20745
-966.20745
-966.20745
-966.20745
-966.20745
-966.20745
-966.20745
-966.20745
-966.20745
-966.20745
-966.20745
-966.20745
-966.20745
-966.20745
-966.20745
-966.20745
-966.20745
-966.20745
-966.20745
-966.20745
-966.20745
-966.20745
-966.20745
-966.20745
-966.20745
-966.20745
-966.20745
-966.20745
-966.20745
-966.20745
-966.20745
-966.20745
-966.20745
-966.20745
-966.20745
-966.20745
-966.20745
-966.20745
-966.20745
-966.20745
-966.20745
-966.20745
-966.20745
-966.20745
-966.20745
-966.20745
-966.20745
-966.20745
-966.20745
-966.20745
-966.20745
-966.20745
-966.20745
-966.20745
-966.20745
-966.20745
-966.20745
-966.20745
-966.20745
-966.20745
-966.20745
-966.20745
-966.20745
-966.20745
-966.20745
-966.20745
-966.20745
-966.20745
-966.20745
-966.20745
-966.20745
-966.20745
-966.20745
-966.20745
-966.20745
-966.20745
-966.20745
-966.20745
-966.20745
-966.20745
-966.20745
-966.20745
-966.20745
-966.20745
-966.20745
-966.20745
-966.20745
-966.20745
-966.20745
-966.20745
-966.20745
-966.20745
-966.20745
-966.20745
-966.20745
-966.20745
-966.20745
-966.20745
-966.20745
-966.20745
-966.20745
-966.20745
-966.20745
-966.20745
-966.20745
-966.20745
-966.20745
-966.20745
-966.20745
-966.20745
-966.20745
-966.20745
-966.20745
-966.20745
-966.20745
-966.20745
-966.20745
-966.20745
-966.20745
-966.20745
-966.20745
-966.20745
-966.20745
-966.20745
-966.20745
-966.20745
-966.20745
-966.20745
-966.20745
-966.20745
-966.20745
-966.20745
-966.20745
-966.20745
-966.20745
-966.20745
-966.20745
-966.20745
-966.20745
-966.20745
-966.20745
-966.20745
-966.20745
-966.20745
-966.20745
-966.20745
-966.20745
-966.20746
-966.20746
-966.20746
-966.20746
-966.20746
-966.20746
-966.20746
-966.20746
-966.20746
-966.20746
-966.20746
-966.20746
-966.20746
-966.20746
-966.20746
-966.20746
-966.20746
-966.20746
-966.20746
-966.20746
-966.20746
-966.20746
-966.20746
-966.20746
-966.20746
-966.20746
-966.20746
-966.20746
-966.20746
-966.20746
-966.20746
-966.20746
-966.20746
-966.20746
-966.20746
-966.20746
-966.20746
-966.20746
-966.20746
-966.20746
-966.20746
-966.20746
-966.20746
-966.20746
-966.20746
-966.20746
-966.20746
-966.20746
-966.20746
-966.20746
-966.20746
-966.20746
-966.20746
-966.20746
-966.20746
-966.20746
-966.20746
-966.20746
-966.20746
-966.20746
-966.20746
-966.20746
-966.20746
-966.20746
-966.20746
-966.20746
-966.20746
-966.20746
-966.20746
-966.20746
-966.20746
-966.20746
-966.20746
-966.20746
-966.20746
-966.20746
-966.20746
-966.20746
-966.20746
-966.20746
-966.20746
-966.20746
-966.20746
-966.20746
-966.20746
-966.20746
-966.20746
-966.20746
-966.20746
-966.20746
-966.20746
-966.20746
-966.20746
-966.20746
-966.20746
-966.20746
-966.20746
-966.20746
-966.20746
-966.20746
-966.20746
-966.20746
-966.20746
-966.20746
-966.20746
-966.20746
-966.20746
-966.20746
-966.20746
-966.20746
-966.20746
-966.20746
-966.20746
-966.20746
-966.20746
-966.20746
-966.20746
-966.20746
-966.20746
-966.20746
-966.20746
-966.20746
-966.20746
-966.20746
-966.20746
-966.20746
-966.20746
-966.20746
-966.20746
-966.20746
-966.20746
-966.20746
-966.20746
-966.20746
-966.20746
-966.20746
-966.20746
-966.20746
-966.20746
-966.20746
-966.20746
-966.20746
-966.20746
-966.20746
-966.20746
-966.20746
-966.20746
-966.20746
-966.20746
-966.20746
-966.20746
-966.20746
-966.20746
-966.20746
-966.20746
-966.20746
-966.20746
-966.20746
-966.20746
-966.20746
-966.20746
-966.20746
-966.20746
-966.20746
-966.20746
-966.20746
-966.20746
-966.20746
-966.20746
-966.20746
-966.20746
-966.20746
-966.20746
-966.20746
-966.20746
-966.20746
-966.20746
-966.20746
-966.20746
-966.20746
-966.20746
-966.20746
-966.20746
-966.20746
-966.20746
-966.20746
-966.20746
-966.20746
-966.20746
-966.20746
-966.20746
-966.20746
-966.20746
-966.20746
-966.20746
-966.20746
-966.20746
-966.20746
-966.20746
-966.20746
-966.20746
-966.20746
-966.20746
-966.20746
-966.20746
-966.20746
-966.20746
-966.20746
-966.20746
-966.20746
-966.20746
-966.20746
-966.20746
-966.20746
-966.20746
-966.20746
-966.20746
-966.20746
-966.20746
-966.20746
-966.20746
-966.20746
-966.20746
-966.20746
-966.20746
-966.20746
-966.20746
-966.20746
-966.20746
-966.20746
-966.20746
-966.20746
-966.20746
-966.20746
-966.20746
-966.20746
-966.20746
-966.20746
-966.20746
-966.20746
-966.20746
-966.20746
-966.20746
-966.20746
-966.20746
-966.20746
-966.20746
-966.20746
-966.20746
-966.20746
-966.20746
-966.20746
-966.20746
-966.20746
-966.20746
-966.20746
-966.20746
-966.20746
-966.20746
-966.20746
-966.20746
-966.20746
-966.20746
-966.20746
-966.20746
-966.20746
-966.20746
-966.20746
-966.20746
-966.20746
-966.20746
-966.20746
-966.20746
-966.20746
-966.20746
-966.20746
-966.20746
-966.20746
-966.20746
-966.20746
-966.20746
-966.20746
-966.20746
-966.20746
-966.20746
-966.20746
-966.20746
-966.20746
-966.20746
-966.20746
-966.20746
-966.20746
-966.20746
-966.20746
-966.20746
-966.20746
-966.20746
-966.20746
-966.20746
-966.20746
-966.20746
-966.20746
-966.20746
-966.20746
-966.20747
-966.20747
-966.20747
-966.20747
-966.20747
-966.20747
-966.20747
-966.20747
-966.20747
-966.20747
-966.20747
-966.20747
-966.20747
-966.20747
-966.20747
-966.20747
-966.20747
-966.20747
-966.20747
-966.20747
-966.20747
-966.20747
-966.20747
-966.20747
-966.20747
-966.20747
-966.20747
-966.20747
-966.20747
-966.20747
-966.20747
-966.20747
-966.20747
-966.20747
-966.20747
-966.20747
-966.20747
-966.20747
-966.20747
-966.20747
-966.20747
-966.20747
-966.20747
-966.20747
-966.20747
-966.20747
-966.20747
-966.20747
-966.20747
-966.20747
-966.20747
-966.20747
-966.20747
-966.20747
-966.20747
-966.20747
-966.20747
-966.20747
-966.20747
-966.20747
-966.20747
-966.20747
-966.20747
-966.20747
-966.20747
-966.20747
-966.20747
-966.20747
-966.20747
-966.20747
-966.20747
-966.20747
-966.20747
-966.20747
-966.20747
-966.20747
-966.20747
-966.20747
-966.20747
-966.20747
-966.20747
-966.20747
-966.20747
-966.20747
-966.20747
-966.20747
-966.20747
-966.20747
-966.20747
-966.20747
-966.20747
-966.20747
-966.20747
-966.20747
-966.20747
-966.20747
-966.20747
-966.20747
-966.20747
-966.20747
-966.20747
-966.20747
-966.20747
-966.20747
-966.20747
-966.20747
-966.20747
-966.20747
-966.20747
-966.20747
-966.20747
-966.20747
-966.20747
-966.20747
-966.20747
-966.20747
-966.20747
-966.20747
-966.20747
-966.20747
-966.20747
-966.20747
-966.20747
-966.20747
-966.20747
-966.20747
-966.20747
-966.20747
-966.20747
-966.20747
-966.20747
-966.20747
-966.20747
-966.20747
-966.20747
-966.20747
-966.20747
-966.20747
-966.20747
-966.20747
-966.20747
-966.20747
-966.20747
-966.20747
-966.20747
-966.20747
-966.20747
-966.20747
-966.20747
-966.20747
-966.20747
-966.20747
-966.20747
-966.20747
-966.20747
-966.20747
-966.20747
-966.20747
-966.20747
-966.20747
-966.20747
-966.20747
-966.20747
-966.20747
-966.20747
-966.20747
-966.20747
-966.20747
-966.20747
-966.20747
-966.20747
-966.20747
-966.20747
-966.20747
-966.20747
-966.20747
-966.20747
-966.20747
-966.20747
-966.20747
-966.20747
-966.20747
-966.20747
-966.20747
-966.20747
-966.20747
-966.20747
-966.20747
-966.20747
-966.20747
-966.20747
-966.20747
-966.20747
-966.20747
-966.20747
-966.20747
-966.20747
-966.20747
-966.20747
-966.20747
-966.20747
-966.20747
-966.20747
-966.20747
-966.20747
-966.20747
-966.20747
-966.20747
-966.20747
-966.20747
-966.20747
-966.20747
-966.20747
-966.20747
-966.20747
-966.20747
-966.20747
-966.20747
-966.20747
-966.20747
-966.20747
-966.20747
-966.20747
-966.20747
-966.20747
-966.20747
-966.20747
-966.20747
-966.20747
-966.20747
-966.20747
-966.20747
-966.20747
-966.20747
-966.20747
-966.20747
-966.20747
-966.20747
-966.20747
-966.20747
-966.20747
-966.20747
-966.20747
-966.20747
-966.20747
-966.20747
-966.20747
-966.20747
-966.20747
-966.20747
-966.20747
-966.20747
-966.20747
-966.20747
-966.20747
-966.20747
-966.20747
-966.20747
-966.20747
-966.20747
-966.20747
-966.20747
-966.20747
-966.20747
-966.20747
-966.20747
-966.20747
-966.20747
-966.20747
-966.20747
-966.20747
-966.20747
-966.20747
-966.20747
-966.20747
-966.20747
-966.20747
-966.20747
-966.20747
-966.20747
-966.20747
-966.20747
-966.20747
-966.20747
-966.20747
-966.20747
-966.20747
-966.20747
-966.20747
-966.20747
-966.20747
-966.20747
-966.20747
-966.20747
-966.20747
-966.20747
-966.20747
-966.20747
-966.20747
-966.20747
-966.20747
-966.20747
-966.20747
-966.20747
-966.20747
-966.20747
-966.20747
-966.20747
-966.20747
-966.20747
-966.20747
-966.20747
-966.20747
-966.20747
-966.20747
-966.20747
-966.20747
-966.20747
-966.20747
-966.20747
-966.20747
-966.20747
-966.20747
-966.20747
-966.20747
-966.20747
-966.20747
-966.20747
-966.20747
-966.20747
-966.20747
-966.20747
-966.20747
-966.20747
-966.20747
-966.20747
-966.20747
-966.20747
-966.20747
-966.20747
-966.20747
-966.20747
-966.20747
-966.20747
-966.20747
-966.20747
-966.20747
-966.20747
-966.20747
-966.20747
-966.20747
-966.20747
-966.20747
-966.20747
-966.20747
-966.20747
-966.20747
-966.20747
-966.20747
-966.20747
-966.20747
-966.20747
-966.20747
-966.20747
-966.20747
-966.20747
-966.20747
-966.20747
-966.20747
-966.20747
-966.20747
-966.20747
-966.20747
-966.20747
-966.20747
-966.20747
-966.20747
-966.20747
-966.20747
-966.20747
-966.20747
-966.20747
-966.20747
-966.20747
-966.20747
-966.20747
-966.20747
-966.20747
-966.20747
-966.20747
-966.20747
-966.20747
-966.20747
-966.20747
-966.20747
-966.20747
-966.20747
-966.20747
-966.20747
-966.20747
-966.20747
-966.20747
-966.20747
-966.20747
-966.20747
-966.20747
-966.20747
-966.20747
-966.20747
-966.20747
-966.20747
-966.20747
-966.20747
-966.20747
-966.20747
-966.20747
-966.20747
-966.20747
-966.20747
-966.20747
-966.20747
-966.20747
-966.20747
-966.20747
-966.20747
-966.20747
-966.20747
-966.20747
-966.20747
-966.20747
-966.20747
-966.20747
-966.20747
-966.20747
-966.20747
-966.20747
-966.20747
-966.20747
-966.20747
-966.20747
-966.20747
-966.20747
-966.20747
-966.20747
-966.20747
-966.20747
-966.20747
-966.20747
-966.20747
-966.20747
-966.20747
-966.20747
-966.20747
-966.20747
-966.20747
-966.20747
-966.20747
-966.20747
-966.20747
-966.20747
-966.20747
-966.20747
-966.20747
-966.20747
-966.20747
-966.20747
-966.20747
-966.20747
-966.20747
-966.20747
-966.20747
-966.20747
-966.20747
-966.20747
-966.20747
-966.20747
-966.20747
